"T","Distance","Radius","FreeRadius","X","Y","Z"
0.000,0.000,2.607,2.607,212.763,223.599,196.137
0.001,0.295,2.807,2.807,212.912,223.436,196.333
0.003,0.587,3.004,3.004,213.060,223.276,196.526
0.004,0.873,3.196,3.196,213.205,223.119,196.715
0.005,1.147,3.382,3.382,213.344,222.967,196.898
0.007,1.409,3.558,3.558,213.476,222.823,197.071
0.008,1.653,3.722,3.722,213.600,222.689,197.233
0.009,1.877,3.872,3.872,213.713,222.565,197.381
0.011,2.076,4.006,4.006,213.815,222.455,197.514
0.012,2.249,4.122,4.122,213.902,222.360,197.628
0.013,2.390,4.221,4.221,213.974,222.281,197.721
0.015,2.498,4.303,4.303,214.028,222.222,197.793
0.016,2.573,4.367,4.367,214.066,222.180,197.842
0.017,2.618,4.415,4.415,214.088,222.155,197.872
0.019,2.639,4.446,4.446,214.098,222.144,197.887
0.020,2.642,4.461,4.461,214.096,222.144,197.889
0.021,2.659,4.461,4.461,214.084,222.155,197.882
0.023,2.687,4.447,4.447,214.066,222.172,197.869
0.024,2.724,4.424,4.424,214.042,222.195,197.854
0.025,2.764,4.396,4.396,214.015,222.220,197.838
0.027,2.805,4.367,4.367,213.986,222.247,197.826
0.028,2.843,4.339,4.339,213.958,222.272,197.820
0.029,2.878,4.318,4.318,213.932,222.293,197.824
0.031,2.909,4.307,4.307,213.908,222.311,197.835
0.032,2.940,4.308,4.308,213.887,222.325,197.854
0.033,2.971,4.319,4.319,213.870,222.333,197.877
0.035,3.003,4.338,4.338,213.855,222.336,197.906
0.036,3.036,4.364,4.364,213.845,222.333,197.937
0.037,3.070,4.394,4.394,213.838,222.324,197.969
0.039,3.107,4.426,4.426,213.835,222.308,198.002
0.040,3.147,4.457,4.457,213.837,222.284,198.034
0.041,3.190,4.486,4.486,213.844,222.253,198.064
0.042,3.239,4.513,4.513,213.856,222.214,198.090
0.044,3.293,4.537,4.537,213.872,222.166,198.112
0.045,3.354,4.560,4.560,213.892,222.112,198.131
0.046,3.421,4.583,4.583,213.916,222.051,198.146
0.048,3.494,4.605,4.605,213.943,221.985,198.159
0.049,3.571,4.628,4.628,213.972,221.915,198.170
0.050,3.652,4.653,4.653,214.003,221.841,198.179
0.052,3.735,4.680,4.680,214.035,221.764,198.187
0.053,3.821,4.709,4.709,214.068,221.685,198.194
0.054,3.908,4.739,4.739,214.101,221.605,198.201
0.056,3.995,4.770,4.770,214.133,221.525,198.207
0.057,4.080,4.801,4.801,214.164,221.445,198.214
0.058,4.165,4.832,4.832,214.194,221.366,198.221
0.060,4.247,4.862,4.862,214.223,221.290,198.229
0.061,4.326,4.890,4.890,214.252,221.217,198.236
0.062,4.402,4.917,4.917,214.279,221.147,198.244
0.064,4.473,4.941,4.941,214.307,221.081,198.252
0.065,4.540,4.964,4.964,214.333,221.020,198.260
0.066,4.601,4.985,4.985,214.359,220.965,198.268
0.068,4.657,5.004,5.004,214.386,220.917,198.277
0.069,4.706,5.022,5.022,214.411,220.876,198.285
0.070,4.748,5.037,5.037,214.437,220.843,198.293
0.072,4.786,5.050,5.050,214.463,220.818,198.302
0.073,4.820,5.062,5.062,214.488,220.798,198.312
0.074,4.852,5.071,5.071,214.514,220.782,198.323
0.076,4.883,5.078,5.078,214.539,220.770,198.337
0.077,4.915,5.083,5.083,214.564,220.759,198.354
0.078,4.948,5.085,5.085,214.589,220.749,198.374
0.080,4.985,5.085,5.085,214.613,220.737,198.398
0.081,5.025,5.082,5.082,214.637,220.722,198.428
0.082,5.071,5.077,5.077,214.660,220.704,198.462
0.084,5.123,5.071,5.071,214.683,220.680,198.503
0.085,5.184,5.063,5.063,214.706,220.649,198.550
0.086,5.252,5.054,5.054,214.729,220.613,198.603
0.088,5.328,5.045,5.045,214.753,220.570,198.661
0.089,5.412,5.038,5.038,214.779,220.521,198.724
0.090,5.502,5.031,5.031,214.806,220.467,198.791
0.092,5.600,5.027,5.027,214.837,220.407,198.861
0.093,5.704,5.024,5.024,214.872,220.342,198.935
0.094,5.815,5.025,5.025,214.910,220.271,199.011
0.096,5.932,5.027,5.027,214.954,220.196,199.089
0.097,6.055,5.033,5.033,215.003,220.116,199.169
0.098,6.183,5.040,5.040,215.058,220.032,199.249
0.100,6.316,5.051,5.051,215.118,219.945,199.329
0.101,6.450,5.063,5.063,215.181,219.857,199.407
0.102,6.582,5.079,5.079,215.245,219.769,199.483
0.104,6.709,5.096,5.096,215.308,219.685,199.555
0.105,6.829,5.113,5.113,215.367,219.606,199.622
0.106,6.939,5.130,5.130,215.423,219.533,199.683
0.108,7.035,5.145,5.145,215.471,219.469,199.736
0.109,7.115,5.158,5.158,215.510,219.415,199.781
0.110,7.176,5.166,5.166,215.539,219.374,199.816
0.112,7.216,5.169,5.169,215.556,219.348,199.840
0.113,7.234,5.167,5.167,215.560,219.336,199.854
0.114,7.241,5.162,5.162,215.555,219.335,199.858
0.116,7.253,5.155,5.155,215.545,219.340,199.857
0.117,7.268,5.149,5.149,215.534,219.349,199.851
0.118,7.282,5.145,5.145,215.525,219.357,199.844
0.120,7.290,5.145,5.145,215.522,219.361,199.838
0.121,7.299,5.152,5.152,215.529,219.357,199.835
0.122,7.325,5.166,5.166,215.549,219.341,199.838
0.124,7.375,5.188,5.188,215.587,219.309,199.848
0.125,7.456,5.217,5.217,215.645,219.257,199.869
0.126,7.571,5.251,5.251,215.728,219.184,199.902
0.127,7.717,5.288,5.288,215.831,219.090,199.945
0.129,7.886,5.329,5.329,215.950,218.981,199.997
0.130,8.073,5.371,5.371,216.080,218.862,200.055
0.131,8.269,5.414,5.414,216.217,218.735,200.117
0.133,8.468,5.456,5.456,216.355,218.607,200.181
0.134,8.662,5.497,5.497,216.490,218.482,200.244
0.135,8.845,5.535,5.535,216.616,218.364,200.304
0.137,9.010,5.570,5.570,216.729,218.257,200.359
0.138,9.150,5.602,5.602,216.824,218.166,200.405
0.139,9.257,5.628,5.628,216.896,218.095,200.442
0.141,9.330,5.649,5.649,216.944,218.046,200.469
0.142,9.375,5.664,5.664,216.972,218.016,200.486
0.143,9.395,5.673,5.673,216.982,218.002,200.495
0.145,9.398,5.677,5.677,216.980,218.001,200.497
0.146,9.413,5.677,5.677,216.969,218.010,200.495
0.147,9.437,5.673,5.673,216.952,218.026,200.489
0.149,9.465,5.667,5.667,216.934,218.047,200.481
0.150,9.494,5.661,5.661,216.918,218.068,200.472
0.151,9.518,5.654,5.654,216.907,218.088,200.464
0.153,9.534,5.648,5.648,216.907,218.103,200.458
0.154,9.549,5.643,5.643,216.919,218.112,200.456
0.155,9.573,5.638,5.638,216.943,218.113,200.456
0.157,9.607,5.634,5.634,216.977,218.109,200.460
0.158,9.651,5.631,5.631,217.019,218.100,200.465
0.159,9.702,5.628,5.628,217.068,218.087,200.473
0.161,9.758,5.625,5.625,217.121,218.071,200.481
0.162,9.818,5.622,5.622,217.177,218.053,200.491
0.163,9.879,5.619,5.619,217.235,218.034,200.500
0.165,9.940,5.616,5.616,217.292,218.015,200.510
0.166,9.998,5.611,5.611,217.346,217.997,200.519
0.167,10.051,5.604,5.604,217.396,217.981,200.527
0.169,10.101,5.595,5.595,217.443,217.968,200.535
0.170,10.153,5.584,5.584,217.493,217.956,200.543
0.171,10.211,5.569,5.569,217.549,217.946,200.552
0.173,10.281,5.550,5.550,217.618,217.938,200.565
0.174,10.367,5.529,5.529,217.702,217.931,200.582
0.175,10.476,5.508,5.508,217.809,217.926,200.604
0.177,10.612,5.489,5.489,217.941,217.922,200.633
0.178,10.780,5.474,5.474,218.105,217.919,200.670
0.179,10.985,5.467,5.467,218.305,217.917,200.717
0.181,11.232,5.469,5.469,218.545,217.916,200.773
0.182,11.523,5.483,5.483,218.828,217.914,200.841
0.183,11.850,5.509,5.509,219.147,217.914,200.917
0.185,12.203,5.547,5.547,219.490,217.914,201.000
0.186,12.571,5.592,5.592,219.847,217.914,201.086
0.187,12.943,5.643,5.643,220.209,217.915,201.173
0.189,13.309,5.696,5.696,220.564,217.917,201.259
0.190,13.658,5.750,5.750,220.904,217.919,201.341
0.191,13.980,5.801,5.801,221.217,217.921,201.416
0.193,14.264,5.846,5.846,221.494,217.924,201.481
0.194,14.500,5.885,5.885,221.724,217.928,201.535
0.195,14.678,5.917,5.917,221.897,217.932,201.574
0.197,14.798,5.944,5.944,222.015,217.937,201.599
0.198,14.868,5.965,5.965,222.083,217.941,201.611
0.199,14.897,5.981,5.981,222.112,217.945,201.614
0.201,14.904,5.992,5.992,222.108,217.949,201.610
0.202,14.935,5.998,5.998,222.079,217.951,201.600
0.203,14.981,6.000,6.000,222.034,217.952,201.588
0.205,15.037,5.999,5.999,221.980,217.951,201.575
0.206,15.092,5.997,5.997,221.926,217.947,201.563
0.207,15.139,5.994,5.994,221.880,217.942,201.555
0.208,15.171,5.991,5.991,221.849,217.933,201.554
0.210,15.188,5.991,5.991,221.839,217.921,201.560
0.211,15.210,5.993,5.993,221.849,217.906,201.574
0.212,15.247,6.001,6.001,221.875,217.889,201.593
0.214,15.298,6.013,6.013,221.915,217.870,201.618
0.215,15.361,6.029,6.029,221.967,217.849,201.646
0.216,15.432,6.048,6.048,222.027,217.827,201.677
0.218,15.510,6.070,6.070,222.094,217.804,201.710
0.219,15.590,6.094,6.094,222.163,217.781,201.744
0.220,15.671,6.118,6.118,222.232,217.759,201.778
0.222,15.748,6.141,6.141,222.300,217.736,201.811
0.223,15.821,6.163,6.163,222.362,217.715,201.841
0.224,15.887,6.184,6.184,222.418,217.695,201.868
0.226,15.947,6.203,6.203,222.469,217.676,201.893
0.227,16.001,6.219,6.219,222.514,217.657,201.916
0.228,16.049,6.234,6.234,222.555,217.640,201.936
0.230,16.092,6.246,6.246,222.590,217.623,201.955
0.231,16.130,6.256,6.256,222.621,217.607,201.971
0.232,16.164,6.264,6.264,222.647,217.592,201.985
0.234,16.193,6.269,6.269,222.669,217.577,201.996
0.235,16.218,6.272,6.272,222.687,217.563,202.007
0.236,16.240,6.275,6.275,222.702,217.549,202.015
0.238,16.258,6.278,6.278,222.713,217.536,202.022
0.239,16.276,6.283,6.283,222.722,217.522,202.028
0.240,16.292,6.290,6.290,222.730,217.509,202.035
0.242,16.310,6.300,6.300,222.737,217.495,202.042
0.243,16.329,6.315,6.315,222.745,217.480,202.052
0.244,16.352,6.335,6.335,222.755,217.465,202.065
0.246,16.379,6.357,6.357,222.767,217.448,202.083
0.247,16.412,6.381,6.381,222.784,217.430,202.105
0.248,16.453,6.405,6.405,222.805,217.409,202.133
0.250,16.502,6.429,6.429,222.832,217.387,202.167
0.251,16.561,6.450,6.450,222.865,217.363,202.209
0.252,16.629,6.467,6.467,222.904,217.336,202.258
0.254,16.703,6.479,6.479,222.948,217.309,202.312
0.255,16.782,6.487,6.487,222.994,217.281,202.369
0.256,16.862,6.490,6.490,223.042,217.253,202.427
0.258,16.941,6.491,6.491,223.089,217.226,202.484
0.259,17.017,6.489,6.489,223.135,217.200,202.539
0.260,17.087,6.486,6.486,223.177,217.177,202.590
0.262,17.149,6.481,6.481,223.214,217.156,202.636
0.263,17.201,6.477,6.477,223.245,217.140,202.673
0.264,17.239,6.473,6.473,223.268,217.127,202.702
0.266,17.264,6.469,6.469,223.282,217.120,202.720
0.267,17.277,6.466,6.466,223.289,217.115,202.730
0.268,17.280,6.463,6.464,223.291,217.114,202.733
0.270,17.284,6.461,6.461,223.288,217.116,202.731
0.271,17.292,6.459,6.460,223.283,217.119,202.725
0.272,17.302,6.458,6.458,223.277,217.122,202.718
0.274,17.313,6.457,6.457,223.271,217.126,202.711
0.275,17.321,6.457,6.456,223.266,217.129,202.705
0.276,17.324,6.456,6.455,223.265,217.131,202.702
0.278,17.328,6.455,6.453,223.269,217.130,202.704
0.279,17.342,6.453,6.451,223.279,217.127,202.713
0.280,17.365,6.450,6.448,223.295,217.121,202.728
0.282,17.395,6.444,6.443,223.318,217.113,202.748
0.283,17.434,6.437,6.437,223.346,217.104,202.772
0.284,17.478,6.427,6.429,223.379,217.095,202.799
0.286,17.528,6.415,6.419,223.419,217.086,202.829
0.287,17.583,6.401,6.408,223.463,217.078,202.860
0.288,17.641,6.388,6.395,223.513,217.072,202.891
0.290,17.704,6.373,6.383,223.567,217.069,202.921
0.291,17.769,6.360,6.369,223.625,217.068,202.950
0.292,17.838,6.348,6.356,223.688,217.072,202.977
0.293,17.909,6.338,6.344,223.755,217.079,203.001
0.295,17.984,6.329,6.331,223.826,217.089,203.025
0.296,18.063,6.319,6.317,223.899,217.102,203.052
0.297,18.145,6.307,6.301,223.974,217.114,203.082
0.299,18.231,6.291,6.281,224.050,217.127,203.120
0.300,18.321,6.267,6.258,224.127,217.139,203.166
0.301,18.418,6.236,6.228,224.204,217.148,203.223
0.303,18.523,6.194,6.192,224.281,217.153,203.294
0.304,18.637,6.140,6.149,224.357,217.154,203.380
0.305,18.765,6.075,6.098,224.431,217.150,203.484
0.307,18.908,6.003,6.042,224.503,217.140,203.608
0.308,19.065,5.926,5.981,224.571,217.124,203.748
0.309,19.234,5.847,5.917,224.637,217.103,203.902
0.311,19.411,5.768,5.851,224.699,217.080,204.066
0.312,19.593,5.694,5.784,224.757,217.056,204.237
0.313,19.776,5.625,5.718,224.811,217.031,204.410
0.315,19.958,5.565,5.654,224.861,217.007,204.584
0.316,20.135,5.512,5.591,224.905,216.985,204.753
0.317,20.303,5.464,5.530,224.944,216.967,204.916
0.319,20.458,5.421,5.471,224.977,216.954,205.067
0.320,20.599,5.381,5.414,225.004,216.947,205.205
0.321,20.724,5.342,5.360,225.027,216.944,205.328
0.323,20.837,5.304,5.308,225.050,216.941,205.439
0.324,20.944,5.264,5.259,225.078,216.933,205.542
0.325,21.051,5.221,5.211,225.116,216.916,205.640
0.327,21.164,5.171,5.159,225.167,216.884,205.735
0.328,21.293,5.111,5.099,225.236,216.832,205.832
0.329,21.449,5.038,5.028,225.328,216.756,205.932
0.331,21.642,4.948,4.941,225.448,216.651,206.040
0.332,21.879,4.838,4.835,225.599,216.512,206.158
0.333,22.169,4.705,4.705,225.787,216.334,206.290
0.335,22.516,4.547,4.549,226.013,216.115,206.437
0.336,22.911,4.372,4.375,226.271,215.861,206.596
0.337,23.340,4.187,4.191,226.551,215.583,206.764
0.339,23.789,4.002,4.005,226.845,215.289,206.934
0.340,24.245,3.824,3.827,227.143,214.990,207.104
0.341,24.693,3.663,3.664,227.436,214.693,207.269
0.343,25.120,3.526,3.527,227.715,214.409,207.424
0.344,25.513,3.423,3.422,227.970,214.147,207.564
0.345,25.856,3.355,3.354,228.193,213.916,207.687
0.347,26.138,3.317,3.315,228.375,213.725,207.786
0.348,26.344,3.303,3.301,228.507,213.584,207.859
0.349,26.474,3.306,3.304,228.588,213.493,207.905
0.351,26.543,3.320,3.318,228.629,213.443,207.929
0.352,26.563,3.339,3.338,228.637,213.426,207.935
0.353,26.581,3.357,3.356,228.623,213.434,207.928
0.355,26.621,3.367,3.368,228.595,213.458,207.913
0.356,26.671,3.371,3.372,228.562,213.490,207.893
0.357,26.718,3.369,3.371,228.533,213.521,207.874
0.359,26.749,3.364,3.367,228.517,213.544,207.860
0.360,26.759,3.358,3.361,228.523,213.550,207.856
0.361,26.802,3.352,3.355,228.560,213.530,207.866
0.363,26.896,3.350,3.352,228.634,213.480,207.893
0.364,27.036,3.353,3.352,228.742,213.401,207.935
0.365,27.213,3.361,3.358,228.877,213.299,207.988
0.367,27.421,3.376,3.370,229.035,213.178,208.050
0.368,27.651,3.397,3.388,229.208,213.043,208.117
0.369,27.895,3.423,3.412,229.393,212.899,208.186
0.371,28.146,3.453,3.443,229.583,212.750,208.253
0.372,28.395,3.488,3.480,229.773,212.601,208.317
0.373,28.635,3.527,3.524,229.956,212.457,208.372
0.375,28.858,3.569,3.575,230.128,212.322,208.417
0.376,29.057,3.615,3.631,230.283,212.201,208.448
0.377,29.232,3.663,3.693,230.420,212.094,208.466
0.378,29.387,3.713,3.757,230.542,211.998,208.475
0.380,29.527,3.765,3.822,230.651,211.911,208.476
0.381,29.655,3.819,3.887,230.750,211.829,208.474
0.382,29.775,3.875,3.950,230.841,211.751,208.473
0.384,29.892,3.931,4.010,230.926,211.672,208.474
0.385,30.008,3.987,4.064,231.009,211.591,208.482
0.386,30.129,4.045,4.115,231.091,211.504,208.500
0.388,30.260,4.104,4.164,231.176,211.409,208.531
0.389,30.406,4.164,4.212,231.265,211.303,208.579
0.390,30.571,4.227,4.261,231.360,211.184,208.644
0.392,30.753,4.292,4.312,231.459,211.056,208.725
0.393,30.946,4.360,4.367,231.560,210.919,208.816
0.394,31.145,4.431,4.428,231.661,210.778,208.914
0.396,31.348,4.506,4.494,231.760,210.634,209.017
0.397,31.548,4.582,4.565,231.854,210.490,209.118
0.398,31.741,4.657,4.639,231.942,210.349,209.216
0.400,31.922,4.730,4.715,232.021,210.213,209.306
0.401,32.086,4.799,4.791,232.088,210.085,209.385
0.402,32.231,4.862,4.865,232.143,209.967,209.448
0.404,32.351,4.918,4.937,232.183,209.862,209.493
0.405,32.451,4.965,5.005,232.209,209.771,209.520
0.406,32.534,5.003,5.068,232.227,209.691,209.535
0.408,32.605,5.034,5.125,232.240,209.621,209.541
0.409,32.666,5.057,5.174,232.253,209.561,209.543
0.410,32.721,5.076,5.215,232.269,209.508,209.545
0.412,32.773,5.089,5.246,232.292,209.463,209.551
0.413,32.829,5.100,5.267,232.328,209.422,209.565
0.414,32.897,5.108,5.277,232.379,209.386,209.592
0.416,32.988,5.114,5.274,232.451,209.353,209.637
0.417,33.109,5.121,5.264,232.547,209.321,209.703
0.418,33.262,5.129,5.248,232.669,209.290,209.791
0.420,33.446,5.139,5.232,232.816,209.257,209.895
0.421,33.653,5.154,5.217,232.985,209.222,210.011
0.422,33.880,5.173,5.208,233.173,209.181,210.131
0.424,34.122,5.199,5.209,233.378,209.134,210.250
0.425,34.375,5.233,5.222,233.598,209.079,210.361
0.426,34.635,5.274,5.250,233.831,209.014,210.458
0.428,34.901,5.324,5.291,234.074,208.937,210.534
0.429,35.171,5.381,5.345,234.324,208.847,210.585
0.430,35.448,5.445,5.411,234.579,208.743,210.604
0.432,35.733,5.516,5.489,234.837,208.622,210.585
0.433,36.029,5.594,5.578,235.094,208.487,210.531
0.434,36.331,5.678,5.677,235.347,208.343,210.449
0.436,36.637,5.768,5.786,235.592,208.194,210.344
0.437,36.940,5.861,5.900,235.826,208.043,210.224
0.438,37.234,5.954,6.016,236.044,207.895,210.093
0.440,37.512,6.042,6.129,236.243,207.754,209.959
0.441,37.767,6.124,6.234,236.419,207.624,209.828
0.442,37.992,6.196,6.327,236.569,207.509,209.705
0.444,38.179,6.255,6.404,236.689,207.414,209.598
0.445,38.321,6.296,6.461,236.775,207.342,209.512
0.446,38.415,6.320,6.495,236.828,207.295,209.450
0.448,38.469,6.330,6.512,236.853,207.268,209.410
0.449,38.494,6.329,6.514,236.857,207.257,209.388
0.450,38.506,6.320,6.505,236.846,207.257,209.383
0.452,38.527,6.306,6.490,236.827,207.265,209.390
0.453,38.556,6.292,6.471,236.807,207.276,209.407
0.454,38.586,6.280,6.454,236.792,207.285,209.432
0.456,38.615,6.274,6.442,236.789,207.289,209.461
0.457,38.649,6.274,6.435,236.803,207.282,209.491
0.458,38.702,6.279,6.432,236.842,207.260,209.519
0.459,38.785,6.288,6.432,236.910,207.220,209.544
0.461,38.898,6.301,6.435,237.006,207.164,209.564
0.462,39.035,6.316,6.438,237.123,207.094,209.579
0.463,39.191,6.332,6.442,237.257,207.014,209.591
0.465,39.360,6.349,6.445,237.401,206.927,209.600
0.466,39.536,6.365,6.447,237.551,206.837,209.606
0.467,39.711,6.381,6.447,237.702,206.746,209.609
0.469,39.881,6.395,6.447,237.847,206.659,209.609
0.470,40.038,6.409,6.446,237.982,206.578,209.608
0.471,40.177,6.422,6.445,238.101,206.507,209.606
0.473,40.291,6.433,6.445,238.199,206.448,209.602
0.474,40.378,6.443,6.446,238.274,206.404,209.597
0.475,40.441,6.451,6.449,238.328,206.373,209.592
0.477,40.482,6.458,6.453,238.363,206.353,209.587
0.478,40.504,6.462,6.457,238.383,206.342,209.583
0.479,40.511,6.465,6.461,238.388,206.340,209.579
0.481,40.519,6.466,6.464,238.383,206.344,209.576
0.482,40.536,6.465,6.466,238.369,206.353,209.575
0.483,40.560,6.463,6.465,238.348,206.366,209.576
0.485,40.589,6.459,6.461,238.323,206.380,209.578
0.486,40.619,6.454,6.454,238.297,206.395,209.584
0.487,40.649,6.447,6.444,238.272,206.409,209.592
0.489,40.677,6.441,6.433,238.249,206.421,209.602
0.490,40.700,6.434,6.423,238.231,206.430,209.612
0.491,40.717,6.427,6.415,238.218,206.436,209.621
0.493,40.726,6.422,6.411,238.212,206.438,209.628
0.494,40.731,6.418,6.412,238.215,206.436,209.631
0.495,40.747,6.416,6.420,238.228,206.428,209.629
0.497,40.777,6.417,6.435,238.254,206.415,209.622
0.498,40.823,6.419,6.456,238.293,206.394,209.606
0.499,40.888,6.422,6.481,238.347,206.367,209.582
0.501,40.974,6.427,6.507,238.417,206.331,209.548
0.502,41.080,6.431,6.532,238.503,206.289,209.503
0.503,41.202,6.435,6.555,238.602,206.240,209.451
0.505,41.334,6.437,6.573,238.709,206.188,209.393
0.506,41.474,6.439,6.585,238.821,206.133,209.331
0.507,41.616,6.439,6.590,238.936,206.078,209.267
0.509,41.757,6.438,6.591,239.049,206.024,209.203
0.510,41.892,6.436,6.588,239.157,205.974,209.140
0.511,42.016,6.433,6.582,239.257,205.928,209.081
0.513,42.126,6.430,6.576,239.345,205.889,209.028
0.514,42.217,6.428,6.569,239.417,205.858,208.983
0.515,42.286,6.425,6.564,239.472,205.837,208.947
0.517,42.336,6.423,6.562,239.512,205.824,208.919
0.518,42.371,6.421,6.561,239.539,205.818,208.900
0.519,42.393,6.419,6.562,239.557,205.816,208.886
0.521,42.407,6.416,6.562,239.568,205.818,208.879
0.522,42.416,6.411,6.562,239.576,205.822,208.876
0.523,42.424,6.405,6.561,239.584,205.826,208.877
0.525,42.435,6.397,6.557,239.594,205.828,208.881
0.526,42.452,6.387,6.551,239.609,205.826,208.887
0.527,42.478,6.374,6.541,239.633,205.820,208.894
0.529,42.516,6.360,6.528,239.669,205.807,208.901
0.530,42.566,6.345,6.513,239.715,205.787,208.908
0.531,42.625,6.331,6.496,239.768,205.763,208.914
0.533,42.688,6.318,6.477,239.824,205.735,208.918
0.534,42.751,6.308,6.456,239.880,205.705,208.921
0.535,42.811,6.300,6.435,239.931,205.674,208.922
0.537,42.863,6.297,6.414,239.974,205.645,208.921
0.538,42.905,6.297,6.393,240.006,205.618,208.917
0.539,42.934,6.302,6.375,240.022,205.595,208.910
0.541,42.954,6.309,6.362,240.019,205.577,208.901
0.542,42.985,6.320,6.355,239.993,205.567,208.887
