"T","Distance","Radius","FreeRadius","X","Y","Z"
0.000,0.000,2.460,2.460,318.071,306.751,165.135
0.001,0.090,2.485,2.485,318.015,306.787,165.194
0.003,0.179,2.511,2.511,317.959,306.825,165.252
0.004,0.267,2.537,2.537,317.902,306.864,165.307
0.005,0.354,2.564,2.564,317.843,306.905,165.356
0.007,0.440,2.592,2.592,317.781,306.949,165.398
0.008,0.527,2.622,2.622,317.717,306.996,165.431
0.009,0.615,2.653,2.653,317.649,307.048,165.453
0.011,0.706,2.686,2.686,317.578,307.104,165.463
0.012,0.804,2.722,2.722,317.502,307.166,165.459
0.014,0.912,2.763,2.763,317.421,307.234,165.439
0.015,1.033,2.809,2.809,317.334,307.309,165.401
0.016,1.169,2.862,2.862,317.241,307.391,165.343
0.018,1.322,2.923,2.923,317.143,307.481,165.268
0.019,1.490,2.995,2.995,317.041,307.576,165.175
0.020,1.668,3.078,3.078,316.936,307.675,165.070
0.022,1.856,3.174,3.174,316.829,307.776,164.953
0.023,2.050,3.279,3.279,316.723,307.878,164.827
0.024,2.247,3.390,3.390,316.619,307.981,164.695
0.026,2.444,3.506,3.506,316.518,308.081,164.559
0.027,2.638,3.623,3.623,316.421,308.178,164.421
0.028,2.826,3.738,3.738,316.331,308.270,164.285
0.030,3.005,3.849,3.849,316.248,308.356,164.151
0.031,3.172,3.953,3.953,316.173,308.435,164.024
0.032,3.325,4.048,4.048,316.109,308.505,163.905
0.034,3.465,4.134,4.134,316.053,308.567,163.793
0.035,3.591,4.213,4.213,316.005,308.621,163.688
0.037,3.706,4.284,4.284,315.965,308.668,163.592
0.038,3.810,4.348,4.348,315.932,308.709,163.502
0.039,3.903,4.404,4.404,315.904,308.743,163.420
0.041,3.986,4.453,4.453,315.882,308.771,163.345
0.042,4.060,4.496,4.496,315.864,308.794,163.278
0.043,4.124,4.532,4.532,315.849,308.813,163.218
0.045,4.180,4.562,4.562,315.838,308.827,163.164
0.046,4.229,4.588,4.588,315.829,308.837,163.118
0.047,4.269,4.610,4.610,315.821,308.844,163.079
0.049,4.303,4.627,4.627,315.814,308.849,163.046
0.050,4.331,4.643,4.643,315.808,308.851,163.019
0.051,4.354,4.655,4.655,315.802,308.851,162.997
0.053,4.374,4.666,4.666,315.796,308.849,162.978
0.054,4.390,4.675,4.675,315.789,308.847,162.963
0.055,4.405,4.682,4.682,315.781,308.844,162.951
0.057,4.419,4.688,4.688,315.772,308.842,162.940
0.058,4.434,4.691,4.691,315.761,308.840,162.931
0.060,4.450,4.694,4.694,315.748,308.839,162.922
0.061,4.468,4.694,4.694,315.732,308.839,162.913
0.062,4.489,4.694,4.694,315.714,308.842,162.903
0.064,4.514,4.692,4.692,315.692,308.846,162.891
0.065,4.542,4.690,4.690,315.668,308.852,162.878
0.066,4.574,4.688,4.688,315.641,308.860,162.864
0.068,4.609,4.686,4.686,315.611,308.868,162.847
0.069,4.647,4.685,4.685,315.578,308.876,162.829
0.070,4.689,4.684,4.684,315.543,308.884,162.809
0.072,4.733,4.685,4.685,315.505,308.892,162.788
0.073,4.780,4.688,4.688,315.465,308.898,162.764
0.074,4.830,4.692,4.692,315.422,308.903,162.738
0.076,4.882,4.696,4.696,315.378,308.906,162.710
0.077,4.938,4.701,4.701,315.331,308.907,162.680
0.078,4.996,4.706,4.706,315.283,308.905,162.648
0.080,5.056,4.711,4.711,315.233,308.901,162.614
0.081,5.118,4.715,4.715,315.182,308.895,162.579
0.083,5.181,4.719,4.719,315.131,308.887,162.544
0.084,5.243,4.723,4.723,315.081,308.879,162.508
0.085,5.305,4.726,4.726,315.031,308.870,162.473
0.087,5.365,4.728,4.728,314.983,308.861,162.438
0.088,5.422,4.730,4.730,314.937,308.853,162.405
0.089,5.476,4.732,4.732,314.894,308.845,162.374
0.091,5.526,4.734,4.734,314.854,308.839,162.345
0.092,5.571,4.735,4.735,314.817,308.834,162.319
0.093,5.611,4.736,4.736,314.785,308.831,162.296
0.095,5.644,4.737,4.737,314.757,308.830,162.277
0.096,5.673,4.737,4.737,314.734,308.831,162.260
0.097,5.696,4.737,4.737,314.715,308.833,162.248
0.099,5.713,4.737,4.737,314.700,308.835,162.238
0.100,5.726,4.737,4.737,314.690,308.837,162.231
0.101,5.733,4.736,4.736,314.685,308.840,162.226
0.103,5.736,4.735,4.735,314.684,308.842,162.225
0.104,5.740,4.734,4.734,314.687,308.842,162.226
0.106,5.748,4.734,4.734,314.695,308.842,162.229
0.107,5.762,4.735,4.735,314.707,308.839,162.234
0.108,5.781,4.736,4.736,314.724,308.835,162.242
0.110,5.804,4.739,4.739,314.744,308.828,162.251
0.111,5.828,4.743,4.743,314.765,308.821,162.260
0.112,5.849,4.749,4.749,314.785,308.814,162.267
0.114,5.865,4.756,4.756,314.799,308.809,162.270
0.115,5.873,4.763,4.763,314.807,308.806,162.269
0.116,5.881,4.769,4.769,314.805,308.807,162.262
0.118,5.903,4.773,4.773,314.790,308.814,162.246
0.119,5.944,4.775,4.775,314.761,308.826,162.221
0.120,6.007,4.772,4.772,314.714,308.846,162.185
0.122,6.094,4.765,4.765,314.646,308.874,162.136
0.123,6.211,4.753,4.753,314.556,308.912,162.073
0.124,6.357,4.737,4.737,314.442,308.960,161.995
0.126,6.529,4.719,4.719,314.307,309.016,161.904
0.127,6.722,4.701,4.701,314.155,309.079,161.803
0.129,6.930,4.684,4.684,313.992,309.147,161.695
0.130,7.146,4.668,4.668,313.820,309.217,161.582
0.131,7.367,4.656,4.656,313.645,309.287,161.468
0.133,7.586,4.649,4.649,313.472,309.356,161.354
0.134,7.797,4.646,4.646,313.303,309.421,161.244
0.135,7.996,4.647,4.647,313.144,309.481,161.141
0.137,8.176,4.652,4.652,312.999,309.532,161.047
0.138,8.333,4.659,4.659,312.872,309.574,160.965
0.139,8.461,4.668,4.668,312.768,309.603,160.897
0.141,8.561,4.678,4.678,312.686,309.622,160.844
0.142,8.637,4.690,4.690,312.622,309.631,160.802
0.143,8.695,4.702,4.702,312.575,309.632,160.768
0.145,8.739,4.714,4.714,312.541,309.627,160.741
0.146,8.774,4.725,4.725,312.516,309.618,160.719
0.147,8.803,4.735,4.735,312.499,309.606,160.697
0.149,8.832,4.743,4.743,312.486,309.594,160.674
0.150,8.863,4.749,4.749,312.474,309.583,160.648
0.152,8.900,4.753,4.753,312.460,309.575,160.616
0.153,8.945,4.753,4.753,312.440,309.571,160.575
0.154,9.004,4.750,4.750,312.413,309.575,160.522
0.156,9.078,4.745,4.745,312.377,309.585,160.458
0.157,9.166,4.738,4.738,312.333,309.602,160.385
0.158,9.263,4.730,4.730,312.283,309.625,160.305
0.160,9.367,4.721,4.721,312.229,309.652,160.220
0.161,9.475,4.711,4.711,312.172,309.683,160.133
0.162,9.584,4.701,4.701,312.115,309.718,160.048
0.164,9.690,4.692,4.692,312.059,309.754,159.966
0.165,9.790,4.682,4.682,312.005,309.792,159.890
0.166,9.881,4.673,4.673,311.957,309.830,159.823
0.168,9.960,4.664,4.664,311.915,309.868,159.767
0.169,10.025,4.656,4.656,311.881,309.904,159.725
0.171,10.075,4.648,4.648,311.857,309.938,159.698
0.172,10.113,4.640,4.640,311.841,309.969,159.684
0.173,10.143,4.633,4.633,311.830,309.997,159.679
0.175,10.169,4.627,4.627,311.822,310.022,159.678
0.176,10.192,4.622,4.622,311.814,310.043,159.677
0.177,10.212,4.617,4.617,311.804,310.060,159.672
0.179,10.236,4.613,4.613,311.790,310.073,159.658
0.180,10.270,4.611,4.611,311.769,310.082,159.632
0.181,10.323,4.610,4.610,311.739,310.086,159.590
0.183,10.399,4.610,4.610,311.697,310.084,159.526
0.184,10.505,4.612,4.612,311.640,310.077,159.437
0.185,10.644,4.618,4.618,311.567,310.064,159.320
0.187,10.816,4.629,4.629,311.478,310.046,159.174
0.188,11.015,4.646,4.646,311.375,310.023,159.005
0.189,11.235,4.670,4.670,311.263,309.996,158.818
0.191,11.470,4.704,4.704,311.143,309.965,158.617
0.192,11.715,4.747,4.747,311.019,309.932,158.409
0.194,11.963,4.800,4.800,310.894,309.896,158.198
0.195,12.209,4.861,4.861,310.771,309.859,157.988
0.196,12.446,4.927,4.927,310.652,309.821,157.786
0.198,12.669,4.996,4.996,310.542,309.784,157.596
0.199,12.872,5.063,5.063,310.442,309.746,157.424
0.200,13.049,5.127,5.127,310.356,309.711,157.273
0.202,13.196,5.185,5.185,310.286,309.677,157.148
0.203,13.317,5.234,5.234,310.229,309.645,157.046
0.204,13.414,5.274,5.274,310.186,309.615,156.965
0.206,13.490,5.306,5.306,310.153,309.588,156.902
0.207,13.548,5.331,5.331,310.131,309.563,156.854
0.208,13.592,5.350,5.350,310.116,309.540,156.820
0.210,13.624,5.365,5.365,310.107,309.519,156.797
0.211,13.648,5.377,5.377,310.103,309.501,156.782
0.212,13.666,5.386,5.386,310.102,309.486,156.772
0.214,13.681,5.394,5.394,310.103,309.473,156.766
0.215,13.692,5.401,5.401,310.104,309.463,156.760
0.217,13.703,5.407,5.407,310.103,309.455,156.753
0.218,13.714,5.413,5.413,310.100,309.450,156.743
0.219,13.726,5.417,5.417,310.097,309.448,156.732
0.221,13.739,5.422,5.422,310.092,309.448,156.720
0.222,13.753,5.425,5.425,310.086,309.449,156.707
0.223,13.768,5.429,5.429,310.080,309.452,156.693
0.225,13.784,5.432,5.432,310.074,309.456,156.680
0.226,13.800,5.434,5.434,310.068,309.462,156.666
0.227,13.815,5.437,5.437,310.062,309.468,156.653
0.229,13.829,5.439,5.439,310.057,309.474,156.642
0.230,13.842,5.440,5.440,310.053,309.481,156.631
0.231,13.854,5.441,5.441,310.051,309.488,156.623
0.233,13.863,5.441,5.441,310.049,309.494,156.616
0.234,13.873,5.440,5.440,310.047,309.501,156.609
0.235,13.883,5.440,5.440,310.045,309.506,156.601
0.237,13.895,5.439,5.439,310.039,309.511,156.591
0.238,13.912,5.440,5.440,310.031,309.516,156.578
0.240,13.934,5.441,5.441,310.018,309.519,156.560
0.241,13.964,5.443,5.443,310.000,309.522,156.536
0.242,14.004,5.448,5.448,309.975,309.523,156.505
0.244,14.055,5.454,5.454,309.942,309.523,156.466
0.245,14.119,5.462,5.462,309.901,309.521,156.417
0.246,14.197,5.473,5.473,309.849,309.519,156.357
0.248,14.291,5.486,5.486,309.788,309.514,156.287
0.249,14.397,5.502,5.502,309.719,309.509,156.207
0.250,14.513,5.520,5.520,309.644,309.504,156.119
0.252,14.635,5.541,5.541,309.566,309.499,156.025
0.253,14.760,5.565,5.565,309.487,309.497,155.928
0.254,14.886,5.590,5.590,309.410,309.497,155.828
0.256,15.008,5.617,5.617,309.338,309.500,155.730
0.257,15.125,5.642,5.642,309.272,309.507,155.633
0.258,15.234,5.665,5.665,309.216,309.519,155.540
0.260,15.333,5.684,5.684,309.172,309.537,155.454
0.261,15.420,5.698,5.698,309.142,309.561,155.376
0.263,15.496,5.704,5.704,309.129,309.593,155.307
0.264,15.568,5.702,5.702,309.131,309.632,155.248
0.265,15.639,5.693,5.693,309.144,309.678,155.195
0.267,15.714,5.681,5.680,309.164,309.731,155.146
0.268,15.793,5.667,5.666,309.188,309.789,155.098
0.269,15.877,5.653,5.653,309.211,309.854,155.050
0.271,15.966,5.643,5.643,309.231,309.925,154.999
0.272,16.062,5.639,5.639,309.242,310.000,154.941
0.273,16.165,5.643,5.643,309.243,310.081,154.876
0.275,16.280,5.655,5.656,309.227,310.166,154.800
0.276,16.411,5.675,5.677,309.193,310.255,154.711
0.277,16.561,5.702,5.704,309.136,310.348,154.607
0.279,16.735,5.733,5.736,309.055,310.444,154.488
0.280,16.927,5.768,5.770,308.955,310.542,154.356
0.281,17.135,5.805,5.807,308.839,310.640,154.215
0.283,17.352,5.844,5.844,308.712,310.738,154.068
0.284,17.574,5.882,5.880,308.578,310.833,153.919
0.286,17.795,5.918,5.914,308.441,310.925,153.772
0.287,18.011,5.952,5.945,308.306,311.013,153.628
0.288,18.215,5.982,5.974,308.176,311.094,153.493
0.290,18.403,6.007,5.998,308.055,311.168,153.370
0.291,18.568,6.026,6.019,307.949,311.233,153.261
0.292,18.707,6.037,6.034,307.860,311.287,153.170
0.294,18.813,6.040,6.044,307.793,311.331,153.100
0.295,18.890,6.035,6.049,307.746,311.365,153.049
0.296,18.942,6.024,6.049,307.716,311.389,153.015
0.298,18.970,6.010,6.047,307.701,311.403,152.995
0.299,18.981,5.996,6.044,307.698,311.411,152.988
0.300,18.988,5.983,6.040,307.705,311.410,152.992
0.302,19.007,5.975,6.037,307.719,311.404,153.002
0.303,19.035,5.973,6.037,307.739,311.393,153.018
0.304,19.068,5.979,6.040,307.760,311.377,153.038
0.306,19.103,5.992,6.045,307.782,311.357,153.058
0.307,19.137,6.008,6.052,307.800,311.335,153.076
0.309,19.168,6.027,6.059,307.814,311.311,153.091
0.310,19.196,6.046,6.066,307.821,311.287,153.100
0.311,19.221,6.063,6.073,307.822,311.262,153.105
0.313,19.245,6.074,6.076,307.815,311.239,153.105
0.314,19.272,6.079,6.077,307.800,311.218,153.099
0.315,19.302,6.077,6.075,307.777,311.200,153.089
0.317,19.340,6.067,6.069,307.746,311.186,153.073
0.318,19.386,6.051,6.061,307.706,311.178,153.051
0.319,19.443,6.029,6.049,307.656,311.176,153.025
0.321,19.511,6.001,6.034,307.597,311.181,152.992
0.322,19.591,5.968,6.016,307.527,311.194,152.954
0.323,19.686,5.930,5.996,307.447,311.217,152.910
0.325,19.793,5.888,5.972,307.357,311.250,152.860
0.326,19.911,5.843,5.946,307.260,311.290,152.808
0.327,20.035,5.797,5.916,307.158,311.336,152.755
0.329,20.160,5.749,5.884,307.055,311.386,152.703
0.330,20.284,5.702,5.848,306.954,311.438,152.654
0.332,20.401,5.655,5.808,306.858,311.490,152.611
0.333,20.509,5.611,5.765,306.770,311.541,152.576
0.334,20.603,5.571,5.718,306.692,311.588,152.551
0.336,20.680,5.535,5.670,306.628,311.629,152.539
0.337,20.738,5.506,5.622,306.581,311.663,152.540
0.338,20.779,5.484,5.578,306.554,311.688,152.559
0.340,20.818,5.471,5.541,306.549,311.701,152.595
0.341,20.870,5.469,5.513,306.561,311.706,152.644
0.342,20.931,5.479,5.498,306.586,311.703,152.700
0.344,20.995,5.502,5.498,306.617,311.695,152.755
0.345,21.053,5.538,5.514,306.649,311.684,152.804
0.346,21.098,5.577,5.540,306.676,311.672,152.838
0.348,21.121,5.612,5.571,306.691,311.662,152.851
0.349,21.137,5.635,5.602,306.689,311.655,152.836
0.350,21.191,5.635,5.626,306.665,311.655,152.787
0.352,21.296,5.606,5.638,306.612,311.663,152.697
0.353,21.461,5.538,5.633,306.525,311.681,152.559
0.355,21.694,5.424,5.604,306.397,311.711,152.366
0.356,21.994,5.268,5.551,306.231,311.755,152.120
0.357,22.348,5.084,5.476,306.032,311.808,151.832
0.359,22.745,4.881,5.380,305.809,311.870,151.510
0.360,23.171,4.672,5.266,305.569,311.937,151.165
0.361,23.613,4.468,5.136,305.320,312.008,150.806
0.363,24.059,4.281,4.989,305.068,312.081,150.445
0.364,24.497,4.122,4.830,304.821,312.152,150.090
0.365,24.914,3.997,4.660,304.587,312.220,149.752
0.367,25.297,3.904,4.487,304.374,312.283,149.441
0.368,25.633,3.838,4.317,304.187,312.338,149.167
0.369,25.910,3.794,4.158,304.036,312.384,148.939
0.371,26.120,3.769,4.015,303.924,312.418,148.764
0.372,26.272,3.759,3.897,303.848,312.443,148.636
0.373,26.373,3.758,3.809,303.801,312.461,148.548
0.375,26.433,3.764,3.757,303.780,312.473,148.493
0.376,26.464,3.773,3.739,303.777,312.483,148.463
0.378,26.483,3.783,3.746,303.789,312.492,148.452
0.379,26.506,3.794,3.771,303.810,312.502,148.453
0.380,26.534,3.802,3.807,303.834,312.516,148.457
0.382,26.564,3.807,3.846,303.857,312.535,148.458
0.383,26.597,3.806,3.881,303.872,312.563,148.449
0.384,26.642,3.797,3.906,303.876,312.600,148.422
0.386,26.714,3.780,3.914,303.861,312.649,148.372
0.387,26.814,3.757,3.910,303.831,312.709,148.298
0.388,26.940,3.728,3.894,303.785,312.778,148.203
0.390,27.088,3.697,3.868,303.728,312.856,148.091
0.391,27.253,3.664,3.835,303.662,312.938,147.965
0.392,27.430,3.631,3.796,303.588,313.025,147.829
0.394,27.616,3.600,3.753,303.511,313.114,147.685
0.395,27.806,3.572,3.709,303.432,313.203,147.538
0.396,27.995,3.548,3.665,303.354,313.291,147.389
0.398,28.179,3.528,3.622,303.279,313.376,147.244
0.399,28.354,3.512,3.583,303.211,313.455,147.104
0.401,28.514,3.501,3.549,303.151,313.527,146.973
0.402,28.660,3.494,3.521,303.101,313.592,146.853
0.403,28.793,3.492,3.501,303.059,313.650,146.741
0.405,28.915,3.495,3.491,303.026,313.703,146.636
0.406,29.028,3.503,3.490,303.000,313.751,146.537
0.407,29.137,3.516,3.499,302.979,313.795,146.440
0.409,29.242,3.533,3.516,302.964,313.837,146.344
0.410,29.346,3.555,3.540,302.953,313.876,146.248
0.411,29.452,3.580,3.569,302.946,313.915,146.150
0.413,29.562,3.608,3.603,302.940,313.955,146.048
0.414,29.678,3.640,3.640,302.937,313.995,145.939
0.415,29.802,3.675,3.680,302.934,314.038,145.823
0.417,29.936,3.713,3.722,302.930,314.084,145.697
0.418,30.078,3.754,3.766,302.926,314.132,145.564
0.419,30.228,3.799,3.813,302.922,314.183,145.423
0.421,30.384,3.847,3.863,302.917,314.236,145.276
0.422,30.544,3.899,3.916,302.912,314.289,145.125
0.424,30.709,3.954,3.971,302.906,314.344,144.970
0.425,30.875,4.013,4.030,302.898,314.399,144.813
0.426,31.042,4.075,4.092,302.890,314.454,144.656
0.428,31.209,4.141,4.156,302.881,314.508,144.498
0.429,31.373,4.209,4.222,302.871,314.561,144.343
0.430,31.535,4.279,4.290,302.860,314.613,144.190
0.432,31.692,4.351,4.358,302.847,314.662,144.041
0.433,31.844,4.423,4.427,302.834,314.709,143.897
0.434,31.991,4.496,4.496,302.820,314.755,143.759
0.436,32.131,4.568,4.564,302.805,314.798,143.626
0.437,32.264,4.638,4.631,302.791,314.838,143.500
0.438,32.391,4.706,4.697,302.778,314.877,143.380
0.440,32.509,4.768,4.760,302.766,314.913,143.268
0.441,32.619,4.825,4.821,302.755,314.947,143.164
0.442,32.721,4.873,4.878,302.746,314.979,143.068
0.444,32.813,4.913,4.931,302.740,315.009,142.981
0.445,32.895,4.942,4.981,302.737,315.036,142.903
0.447,32.968,4.961,5.025,302.736,315.061,142.835
0.448,33.030,4.973,5.066,302.739,315.084,142.777
0.449,33.085,4.982,5.102,302.743,315.104,142.727
0.451,33.133,4.989,5.135,302.747,315.122,142.683
0.452,33.175,4.998,5.164,302.750,315.138,142.643
0.453,33.215,5.011,5.190,302.749,315.151,142.606
0.455,33.252,5.032,5.213,302.744,315.162,142.570
0.456,33.292,5.062,5.233,302.733,315.171,142.534
0.457,33.336,5.100,5.251,302.714,315.177,142.495
0.459,33.388,5.143,5.268,302.685,315.181,142.451
0.460,33.451,5.190,5.284,302.646,315.182,142.402
0.461,33.528,5.238,5.301,302.595,315.181,142.345
0.463,33.620,5.287,5.319,302.530,315.177,142.279
0.464,33.727,5.332,5.340,302.453,315.171,142.205
0.465,33.845,5.374,5.364,302.367,315.163,142.125
0.467,33.971,5.410,5.390,302.274,315.154,142.040
0.468,34.102,5.443,5.419,302.177,315.144,141.953
0.470,34.235,5.472,5.450,302.078,315.133,141.865
0.471,34.366,5.499,5.481,301.980,315.122,141.778
0.472,34.494,5.525,5.513,301.885,315.111,141.693
0.474,34.614,5.550,5.545,301.796,315.101,141.613
0.475,34.724,5.575,5.576,301.715,315.092,141.539
0.476,34.821,5.601,5.605,301.644,315.084,141.473
0.478,34.902,5.626,5.632,301.587,315.078,141.417
0.479,34.966,5.649,5.656,301.543,315.073,141.370
0.480,35.015,5.670,5.676,301.511,315.071,141.334
0.482,35.050,5.687,5.692,301.488,315.071,141.306
0.483,35.075,5.699,5.702,301.474,315.074,141.286
0.484,35.090,5.706,5.706,301.466,315.079,141.274
0.486,35.100,5.705,5.704,301.463,315.086,141.269
0.487,35.110,5.698,5.696,301.463,315.096,141.270
0.488,35.125,5.686,5.683,301.465,315.110,141.277
0.490,35.145,5.670,5.667,301.465,315.126,141.289
0.491,35.170,5.651,5.648,301.464,315.145,141.305
0.493,35.201,5.632,5.629,301.459,315.168,141.325
0.494,35.236,5.612,5.611,301.448,315.193,141.348
0.495,35.274,5.594,5.595,301.434,315.220,141.371
0.497,35.312,5.579,5.581,301.416,315.246,141.391
0.498,35.346,5.566,5.571,301.397,315.270,141.405
0.499,35.376,5.557,5.563,301.376,315.291,141.412
0.501,35.402,5.552,5.559,301.355,315.305,141.408
0.502,35.430,5.550,5.557,301.334,315.312,141.391
0.503,35.468,5.554,5.559,301.316,315.310,141.358
0.505,35.523,5.562,5.563,301.300,315.297,141.306
0.506,35.602,5.575,5.570,301.288,315.271,141.233
0.507,35.708,5.592,5.581,301.280,315.230,141.135
0.509,35.843,5.614,5.595,301.278,315.174,141.012
0.510,36.008,5.637,5.613,301.281,315.103,140.864
0.512,36.198,5.662,5.637,301.286,315.018,140.694
0.513,36.410,5.687,5.665,301.291,314.921,140.505
0.514,36.641,5.711,5.699,301.295,314.814,140.301
0.516,36.887,5.733,5.740,301.297,314.699,140.083
0.517,37.145,5.754,5.787,301.293,314.577,139.856
0.518,37.412,5.774,5.838,301.282,314.450,139.621
0.520,37.684,5.795,5.894,301.262,314.320,139.383
0.521,37.959,5.818,5.953,301.232,314.189,139.143
0.522,38.234,5.846,6.013,301.190,314.058,138.905
0.524,38.506,5.880,6.074,301.133,313.928,138.673
0.525,38.774,5.921,6.134,301.062,313.802,138.447
0.526,39.036,5.971,6.192,300.980,313.680,138.231
0.528,39.290,6.027,6.248,300.889,313.562,138.025
0.529,39.534,6.086,6.300,300.791,313.450,137.831
0.530,39.766,6.144,6.347,300.691,313.344,137.651
0.532,39.982,6.198,6.389,300.590,313.245,137.488
0.533,40.181,6.244,6.424,300.491,313.153,137.341
0.535,40.360,6.279,6.451,300.396,313.070,137.214
0.536,40.516,6.299,6.469,300.310,312.996,137.108
0.537,40.646,6.303,6.479,300.233,312.933,137.024
0.539,40.749,6.296,6.482,300.169,312.879,136.964
0.540,40.822,6.281,6.481,300.120,312.837,136.929
0.541,40.871,6.262,6.476,300.085,312.806,136.915
0.543,40.903,6.243,6.470,300.062,312.784,136.917
0.544,40.925,6.229,6.464,300.050,312.771,136.930
0.545,40.946,6.223,6.461,300.048,312.767,136.951
0.547,40.970,6.229,6.461,300.055,312.770,136.973
0.548,40.996,6.245,6.465,300.068,312.779,136.994
0.549,41.023,6.269,6.473,300.086,312.795,137.007
0.551,41.054,6.297,6.483,300.109,312.816,137.009
0.552,41.092,6.328,6.495,300.134,312.841,136.995
