"T","Distance","Radius","FreeRadius","X","Y","Z"
0.000,0.000,1.959,1.959,278.415,304.452,297.745
0.001,0.232,2.031,2.031,278.593,304.333,297.657
0.003,0.461,2.103,2.103,278.769,304.217,297.567
0.004,0.687,2.171,2.171,278.940,304.105,297.471
0.005,0.908,2.234,2.234,279.105,304.001,297.368
0.007,1.122,2.291,2.291,279.261,303.906,297.254
0.008,1.332,2.341,2.341,279.406,303.824,297.128
0.010,1.537,2.381,2.381,279.537,303.756,296.986
0.011,1.740,2.409,2.409,279.652,303.705,296.826
0.012,1.948,2.428,2.428,279.750,303.673,296.645
0.014,2.167,2.439,2.439,279.828,303.663,296.441
0.015,2.402,2.445,2.445,279.884,303.676,296.213
0.016,2.654,2.447,2.447,279.920,303.710,295.966
0.018,2.918,2.448,2.448,279.940,303.759,295.707
0.019,3.189,2.452,2.452,279.945,303.821,295.444
0.021,3.459,2.459,2.459,279.940,303.890,295.182
0.022,3.723,2.471,2.471,279.927,303.964,294.930
0.023,3.971,2.487,2.487,279.908,304.037,294.693
0.025,4.196,2.506,2.506,279.887,304.105,294.480
0.026,4.389,2.527,2.527,279.867,304.166,294.297
0.027,4.544,2.548,2.548,279.849,304.214,294.151
0.029,4.653,2.569,2.569,279.837,304.246,294.048
0.030,4.722,2.587,2.587,279.831,304.264,293.982
0.031,4.757,2.603,2.603,279.828,304.270,293.947
0.033,4.768,2.615,2.615,279.829,304.268,293.936
0.034,4.780,2.624,2.624,279.831,304.259,293.943
0.036,4.802,2.630,2.630,279.834,304.246,293.961
0.037,4.827,2.634,2.634,279.836,304.232,293.982
0.038,4.850,2.635,2.635,279.837,304.220,294.001
0.040,4.863,2.634,2.634,279.836,304.211,294.011
0.041,4.872,2.631,2.631,279.831,304.209,294.004
0.042,4.903,2.627,2.627,279.821,304.215,293.975
0.044,4.956,2.621,2.622,279.805,304.229,293.926
0.045,5.030,2.615,2.616,279.783,304.248,293.858
0.047,5.121,2.609,2.610,279.755,304.271,293.775
0.048,5.226,2.603,2.604,279.718,304.294,293.679
0.049,5.344,2.598,2.599,279.674,304.318,293.572
0.051,5.472,2.595,2.595,279.620,304.339,293.458
0.052,5.608,2.593,2.593,279.556,304.355,293.339
0.053,5.751,2.594,2.592,279.482,304.365,293.217
0.055,5.900,2.597,2.595,279.396,304.367,293.096
0.056,6.053,2.602,2.599,279.300,304.358,292.977
0.057,6.211,2.610,2.608,279.195,304.341,292.860
0.059,6.372,2.622,2.620,279.085,304.318,292.744
0.060,6.534,2.636,2.635,278.975,304.289,292.630
0.062,6.693,2.654,2.655,278.869,304.258,292.515
0.063,6.849,2.674,2.679,278.770,304.226,292.399
0.064,6.999,2.697,2.705,278.682,304.195,292.281
0.066,7.143,2.719,2.731,278.609,304.166,292.161
0.067,7.279,2.742,2.757,278.555,304.143,292.038
0.068,7.411,2.763,2.781,278.524,304.127,291.911
0.070,7.543,2.781,2.801,278.518,304.119,291.780
0.071,7.678,2.796,2.817,278.536,304.118,291.646
0.073,7.815,2.807,2.827,278.572,304.123,291.513
0.074,7.954,2.814,2.832,278.622,304.133,291.384
0.075,8.092,2.818,2.833,278.683,304.145,291.261
0.077,8.224,2.818,2.830,278.748,304.159,291.148
0.078,8.346,2.816,2.824,278.815,304.173,291.046
0.079,8.453,2.812,2.816,278.879,304.185,290.960
0.081,8.542,2.806,2.807,278.935,304.193,290.892
0.082,8.606,2.799,2.796,278.978,304.197,290.845
0.083,8.644,2.791,2.784,279.007,304.195,290.820
0.085,8.662,2.782,2.773,279.022,304.189,290.815
0.086,8.675,2.772,2.762,279.028,304.179,290.823
0.088,8.693,2.762,2.752,279.027,304.170,290.839
0.089,8.714,2.751,2.744,279.025,304.162,290.857
0.090,8.730,2.741,2.738,279.024,304.158,290.873
0.092,8.739,2.731,2.735,279.028,304.160,290.880
0.093,8.756,2.721,2.734,279.041,304.170,290.874
0.094,8.798,2.712,2.736,279.067,304.190,290.848
0.096,8.871,2.705,2.739,279.109,304.222,290.798
0.097,8.981,2.699,2.744,279.170,304.268,290.718
0.098,9.124,2.695,2.750,279.248,304.326,290.614
0.100,9.291,2.694,2.757,279.340,304.392,290.491
0.101,9.475,2.695,2.764,279.441,304.464,290.355
0.103,9.667,2.699,2.772,279.548,304.538,290.214
0.104,9.860,2.705,2.778,279.656,304.612,290.072
0.105,10.046,2.712,2.784,279.762,304.681,289.936
0.107,10.217,2.719,2.787,279.863,304.744,289.813
0.108,10.365,2.726,2.789,279.954,304.797,289.709
0.109,10.483,2.731,2.787,280.031,304.837,289.630
0.111,10.565,2.733,2.782,280.092,304.862,289.580
0.112,10.616,2.732,2.774,280.137,304.873,289.558
0.114,10.646,2.729,2.762,280.167,304.873,289.557
0.115,10.668,2.725,2.750,280.183,304.866,289.570
0.116,10.694,2.721,2.739,280.188,304.855,289.593
0.118,10.724,2.719,2.730,280.183,304.843,289.620
0.119,10.754,2.720,2.726,280.169,304.833,289.644
0.120,10.781,2.726,2.728,280.148,304.828,289.660
0.122,10.808,2.739,2.738,280.121,304.832,289.662
0.123,10.847,2.757,2.756,280.090,304.847,289.645
0.124,10.908,2.780,2.780,280.056,304.877,289.603
0.126,10.993,2.804,2.806,280.021,304.919,289.538
0.127,11.097,2.827,2.831,279.986,304.971,289.455
0.129,11.216,2.847,2.854,279.951,305.031,289.359
0.130,11.344,2.862,2.871,279.917,305.096,289.253
0.131,11.477,2.868,2.879,279.887,305.163,289.143
0.133,11.609,2.866,2.876,279.860,305.230,289.032
0.134,11.735,2.855,2.865,279.838,305.294,288.925
0.135,11.851,2.840,2.848,279.822,305.352,288.827
0.137,11.951,2.821,2.827,279.812,305.402,288.741
0.138,12.030,2.801,2.806,279.811,305.442,288.672
0.140,12.090,2.783,2.786,279.815,305.471,288.620
0.141,12.133,2.770,2.770,279.824,305.491,288.583
0.142,12.160,2.762,2.761,279.834,305.502,288.561
0.144,12.174,2.761,2.760,279.845,305.505,288.553
0.145,12.183,2.765,2.764,279.853,305.502,288.557
0.146,12.201,2.774,2.772,279.857,305.492,288.572
0.148,12.230,2.785,2.783,279.854,305.478,288.597
0.149,12.271,2.797,2.796,279.843,305.460,288.631
0.150,12.323,2.810,2.809,279.820,305.439,288.673
0.152,12.387,2.821,2.821,279.786,305.415,288.722
0.153,12.458,2.831,2.831,279.743,305.392,288.773
0.155,12.526,2.837,2.837,279.698,305.370,288.820
0.156,12.586,2.839,2.839,279.657,305.353,288.859
0.157,12.628,2.835,2.835,279.626,305.342,288.885
0.159,12.644,2.824,2.824,279.610,305.340,288.892
0.160,12.665,2.806,2.806,279.617,305.349,288.874
0.161,12.727,2.779,2.779,279.651,305.370,288.827
0.163,12.840,2.743,2.743,279.719,305.408,288.746
0.164,13.011,2.700,2.700,279.827,305.463,288.624
0.166,13.248,2.654,2.655,279.979,305.537,288.459
0.167,13.543,2.611,2.611,280.171,305.628,288.254
0.168,13.886,2.573,2.574,280.395,305.731,288.015
0.170,14.265,2.546,2.546,280.641,305.844,287.751
0.171,14.667,2.533,2.533,280.902,305.962,287.467
0.172,15.082,2.538,2.538,281.168,306.080,287.172
0.174,15.498,2.562,2.562,281.432,306.196,286.872
0.175,15.904,2.604,2.603,281.686,306.304,286.575
0.176,16.287,2.659,2.658,281.919,306.402,286.287
0.178,16.638,2.727,2.725,282.125,306.484,286.015
0.179,16.946,2.804,2.802,282.296,306.548,285.766
0.181,17.213,2.887,2.886,282.431,306.594,285.541
0.182,17.443,2.975,2.975,282.534,306.622,285.337
0.183,17.641,3.064,3.066,282.607,306.635,285.154
0.185,17.813,3.153,3.157,282.655,306.633,284.989
0.186,17.964,3.240,3.246,282.679,306.618,284.840
0.187,18.100,3.322,3.329,282.683,306.592,284.707
0.189,18.226,3.398,3.405,282.670,306.555,284.587
0.190,18.347,3.465,3.470,282.642,306.509,284.478
0.192,18.466,3.522,3.523,282.604,306.456,284.379
0.193,18.584,3.566,3.561,282.558,306.396,284.289
0.194,18.702,3.597,3.585,282.505,306.332,284.206
0.196,18.819,3.616,3.597,282.446,306.265,284.129
0.197,18.936,3.624,3.600,282.382,306.196,284.059
0.198,19.053,3.622,3.596,282.314,306.128,283.994
0.200,19.167,3.609,3.587,282.242,306.061,283.934
0.201,19.279,3.588,3.577,282.169,305.998,283.879
0.202,19.387,3.559,3.566,282.093,305.940,283.827
0.204,19.491,3.523,3.557,282.017,305.888,283.778
0.205,19.590,3.482,3.548,281.942,305.845,283.731
0.207,19.684,3.437,3.537,281.867,305.811,283.686
0.208,19.773,3.391,3.523,281.793,305.786,283.642
0.209,19.861,3.345,3.505,281.719,305.769,283.598
0.211,19.949,3.301,3.481,281.645,305.758,283.552
0.212,20.039,3.262,3.450,281.570,305.751,283.504
0.213,20.132,3.227,3.410,281.493,305.747,283.452
0.215,20.230,3.198,3.364,281.413,305.745,283.395
0.216,20.333,3.174,3.315,281.330,305.742,283.333
0.218,20.443,3.154,3.264,281.244,305.739,283.265
0.219,20.562,3.139,3.214,281.154,305.732,283.188
0.220,20.691,3.127,3.168,281.058,305.720,283.102
0.222,20.828,3.118,3.129,280.959,305.705,283.008
0.223,20.974,3.111,3.099,280.857,305.685,282.906
0.224,21.127,3.107,3.079,280.753,305.661,282.797
0.226,21.284,3.107,3.069,280.650,305.635,282.681
0.227,21.447,3.109,3.070,280.547,305.606,282.559
0.228,21.612,3.116,3.080,280.446,305.575,282.431
0.230,21.779,3.128,3.100,280.349,305.543,282.299
0.231,21.946,3.144,3.130,280.257,305.510,282.163
0.233,22.113,3.166,3.169,280.171,305.476,282.024
0.234,22.279,3.193,3.217,280.092,305.442,281.882
0.235,22.443,3.224,3.271,280.021,305.408,281.739
0.237,22.603,3.259,3.330,279.955,305.374,281.597
0.238,22.759,3.296,3.391,279.895,305.342,281.457
0.239,22.908,3.335,3.452,279.839,305.310,281.322
0.241,23.051,3.374,3.509,279.787,305.280,281.192
0.242,23.186,3.412,3.562,279.737,305.251,281.071
0.244,23.310,3.448,3.608,279.689,305.224,280.959
0.245,23.424,3.482,3.646,279.643,305.199,280.859
0.246,23.525,3.514,3.679,279.596,305.176,280.771
0.248,23.614,3.544,3.706,279.549,305.156,280.699
0.249,23.692,3.571,3.729,279.501,305.138,280.640
0.250,23.763,3.596,3.748,279.452,305.120,280.592
0.252,23.829,3.619,3.765,279.403,305.103,280.552
0.253,23.893,3.639,3.780,279.352,305.085,280.518
0.254,23.956,3.658,3.795,279.300,305.065,280.487
0.256,24.022,3.675,3.810,279.246,305.043,280.456
0.257,24.091,3.692,3.825,279.192,305.017,280.423
0.259,24.164,3.709,3.842,279.136,304.986,280.385
0.260,24.246,3.728,3.862,279.080,304.951,280.340
0.261,24.336,3.749,3.884,279.021,304.909,280.285
0.263,24.435,3.773,3.911,278.963,304.862,280.220
0.264,24.540,3.801,3.942,278.904,304.811,280.149
0.265,24.648,3.831,3.975,278.848,304.758,280.074
0.267,24.756,3.863,4.010,278.793,304.704,279.998
0.268,24.862,3.894,4.045,278.742,304.651,279.922
0.269,24.962,3.924,4.077,278.695,304.600,279.849
0.271,25.054,3.951,4.106,278.653,304.554,279.782
0.272,25.134,3.975,4.129,278.617,304.513,279.724
0.274,25.199,3.993,4.145,278.589,304.479,279.675
0.275,25.247,4.005,4.154,278.569,304.453,279.640
0.276,25.279,4.014,4.158,278.556,304.436,279.617
0.278,25.297,4.020,4.156,278.549,304.426,279.604
0.279,25.303,4.023,4.151,278.546,304.423,279.599
0.280,25.306,4.025,4.144,278.547,304.425,279.599
0.282,25.314,4.028,4.136,278.549,304.431,279.604
0.283,25.325,4.031,4.127,278.551,304.441,279.610
0.285,25.339,4.036,4.119,278.552,304.454,279.615
0.286,25.353,4.041,4.113,278.550,304.467,279.618
0.287,25.369,4.048,4.107,278.544,304.482,279.616
0.289,25.389,4.055,4.103,278.532,304.495,279.607
0.290,25.415,4.061,4.100,278.515,304.507,279.590
0.291,25.449,4.066,4.098,278.495,304.517,279.566
0.293,25.489,4.071,4.099,278.472,304.523,279.533
0.294,25.536,4.073,4.101,278.449,304.525,279.492
0.295,25.591,4.074,4.105,278.427,304.520,279.442
0.297,25.654,4.072,4.109,278.407,304.510,279.383
0.298,25.726,4.070,4.114,278.392,304.491,279.315
0.300,25.809,4.065,4.119,278.382,304.464,279.238
0.301,25.904,4.059,4.124,278.379,304.427,279.150
0.302,26.012,4.051,4.128,278.384,304.379,279.053
0.304,26.132,4.041,4.130,278.397,304.322,278.948
0.305,26.261,4.031,4.131,278.416,304.258,278.838
0.306,26.396,4.019,4.131,278.440,304.189,278.725
0.308,26.532,4.008,4.129,278.466,304.118,278.612
0.309,26.666,3.998,4.126,278.494,304.047,278.502
0.311,26.793,3.989,4.122,278.520,303.978,278.398
0.312,26.911,3.983,4.117,278.544,303.914,278.302
0.313,27.015,3.980,4.111,278.564,303.857,278.218
0.315,27.101,3.980,4.105,278.579,303.809,278.148
0.316,27.166,3.983,4.099,278.585,303.773,278.094
0.317,27.211,3.986,4.094,278.585,303.748,278.056
0.319,27.239,3.989,4.090,278.581,303.733,278.033
0.320,27.255,3.991,4.087,278.573,303.726,278.021
0.321,27.265,3.991,4.087,278.564,303.726,278.018
0.323,27.275,3.986,4.090,278.556,303.730,278.022
0.324,27.288,3.976,4.096,278.550,303.737,278.032
0.326,27.303,3.962,4.105,278.550,303.746,278.044
0.327,27.319,3.946,4.116,278.556,303.755,278.056
0.328,27.338,3.928,4.126,278.570,303.761,278.067
0.330,27.364,3.911,4.135,278.594,303.764,278.074
0.331,27.396,3.897,4.142,278.627,303.763,278.074
0.332,27.432,3.886,4.145,278.662,303.759,278.067
0.334,27.472,3.882,4.143,278.696,303.750,278.050
0.335,27.514,3.883,4.135,278.725,303.738,278.021
0.337,27.562,3.888,4.122,278.742,303.722,277.979
0.338,27.623,3.896,4.106,278.745,303.703,277.921
0.339,27.703,3.905,4.086,278.728,303.680,277.846
0.341,27.809,3.911,4.065,278.686,303.655,277.752
0.342,27.947,3.915,4.042,278.615,303.626,277.638
0.343,28.121,3.913,4.020,278.512,303.594,277.501
0.345,28.330,3.903,3.997,278.378,303.561,277.344
0.346,28.565,3.888,3.975,278.220,303.527,277.174
0.347,28.816,3.867,3.953,278.045,303.493,276.997
0.349,29.074,3.842,3.929,277.862,303.462,276.817
0.350,29.331,3.813,3.902,277.675,303.435,276.642
0.352,29.578,3.782,3.873,277.493,303.412,276.478
0.353,29.805,3.750,3.840,277.323,303.396,276.329
0.354,30.002,3.718,3.803,277.171,303.387,276.203
0.356,30.162,3.687,3.762,277.045,303.388,276.104
0.357,30.277,3.657,3.721,276.951,303.399,276.039
0.358,30.350,3.630,3.679,276.889,303.418,276.005
0.360,30.392,3.607,3.642,276.855,303.440,275.995
0.361,30.417,3.589,3.609,276.845,303.462,276.002
0.363,30.442,3.576,3.584,276.854,303.479,276.018
0.364,30.473,3.570,3.569,276.879,303.485,276.035
0.365,30.511,3.570,3.564,276.914,303.477,276.047
0.367,30.561,3.576,3.568,276.956,303.451,276.046
0.368,30.631,3.584,3.577,277.001,303.401,276.025
0.369,30.732,3.593,3.589,277.043,303.324,275.976
0.371,30.874,3.602,3.600,277.079,303.214,275.893
0.372,31.057,3.607,3.609,277.108,303.076,275.777
0.373,31.271,3.608,3.613,277.131,302.916,275.635
0.375,31.507,3.601,3.608,277.147,302.743,275.476
0.376,31.754,3.589,3.596,277.159,302.563,275.307
0.378,32.002,3.573,3.579,277.167,302.384,275.136
0.379,32.239,3.553,3.558,277.171,302.215,274.970
0.380,32.454,3.534,3.536,277.173,302.063,274.818
0.382,32.638,3.514,3.516,277.173,301.935,274.686
0.383,32.779,3.498,3.498,277.172,301.839,274.582
0.384,32.868,3.485,3.485,277.171,301.782,274.514
0.386,32.907,3.477,3.478,277.170,301.761,274.481
0.387,32.917,3.474,3.475,277.170,301.768,274.473
0.389,32.944,3.473,3.476,277.170,301.792,274.484
0.390,32.983,3.475,3.479,277.171,301.824,274.506
0.391,33.021,3.479,3.482,277.173,301.854,274.531
0.393,33.049,3.483,3.485,277.177,301.872,274.551
0.394,33.058,3.487,3.487,277.182,301.869,274.559
0.395,33.095,3.491,3.487,277.188,301.835,274.546
0.397,33.180,3.496,3.487,277.196,301.761,274.504
0.398,33.327,3.503,3.490,277.206,301.637,274.427
0.399,33.532,3.515,3.499,277.218,301.466,274.315
0.401,33.784,3.533,3.517,277.231,301.256,274.175
0.402,34.070,3.560,3.547,277.246,301.019,274.015
0.404,34.378,3.596,3.592,277.262,300.765,273.842
0.405,34.696,3.644,3.654,277.278,300.502,273.664
0.406,35.012,3.702,3.731,277.295,300.242,273.486
0.408,35.312,3.767,3.819,277.312,299.995,273.317
0.409,35.584,3.836,3.910,277.328,299.770,273.165
0.410,35.816,3.905,4.000,277.345,299.578,273.035
0.412,35.997,3.971,4.084,277.360,299.428,272.936
0.413,36.124,4.030,4.155,277.374,299.321,272.867
0.415,36.206,4.080,4.209,277.386,299.253,272.825
0.416,36.249,4.118,4.242,277.396,299.216,272.803
0.417,36.262,4.145,4.257,277.403,299.206,272.798
0.419,36.276,4.161,4.257,277.406,299.217,272.805
0.420,36.305,4.168,4.243,277.404,299.244,272.819
0.421,36.345,4.165,4.220,277.398,299.280,272.835
0.423,36.389,4.154,4.189,277.386,299.320,272.848
0.424,36.432,4.135,4.154,277.367,299.358,272.854
0.425,36.472,4.109,4.116,277.342,299.389,272.848
0.427,36.515,4.079,4.079,277.312,299.410,272.827
0.428,36.566,4.048,4.045,277.280,299.421,272.789
0.430,36.631,4.021,4.016,277.249,299.419,272.731
0.431,36.716,3.999,3.996,277.224,299.405,272.652
0.432,36.824,3.986,3.985,277.206,299.378,272.549
0.434,36.959,3.987,3.987,277.200,299.337,272.420
0.435,37.125,4.004,4.004,277.209,299.282,272.263
0.436,37.327,4.037,4.037,277.237,299.211,272.077
0.438,37.567,4.086,4.086,277.286,299.124,271.859
0.439,37.849,4.148,4.151,277.360,299.020,271.606
0.440,38.171,4.222,4.232,277.457,298.902,271.323
0.442,38.524,4.306,4.328,277.574,298.773,271.016
0.443,38.898,4.397,4.441,277.705,298.638,270.693
0.445,39.285,4.495,4.569,277.845,298.501,270.359
0.446,39.674,4.597,4.711,277.990,298.366,270.024
0.447,40.058,4.702,4.862,278.135,298.238,269.693
0.449,40.425,4.806,5.016,278.276,298.120,269.375
0.450,40.768,4.909,5.166,278.407,298.017,269.075
0.451,41.077,5.007,5.308,278.524,297.933,268.801
0.453,41.344,5.099,5.435,278.622,297.873,268.561
0.454,41.567,5.183,5.540,278.700,297.836,268.356
0.456,41.752,5.257,5.620,278.761,297.819,268.182
0.457,41.904,5.321,5.674,278.807,297.819,268.037
0.458,42.029,5.375,5.707,278.840,297.832,267.917
0.460,42.132,5.420,5.725,278.863,297.856,267.819
0.461,42.218,5.458,5.730,278.877,297.887,267.740
0.462,42.291,5.488,5.728,278.886,297.922,267.677
0.464,42.352,5.511,5.722,278.891,297.958,267.627
0.465,42.405,5.530,5.719,278.896,297.990,267.586
0.466,42.449,5.543,5.719,278.901,298.017,267.551
0.468,42.486,5.552,5.722,278.908,298.037,267.521
0.469,42.516,5.559,5.728,278.917,298.051,267.496
0.471,42.541,5.563,5.734,278.926,298.059,267.474
0.472,42.562,5.567,5.740,278.934,298.062,267.456
0.473,42.578,5.570,5.746,278.942,298.062,267.441
0.475,42.591,5.573,5.749,278.947,298.059,267.430
0.476,42.602,5.579,5.749,278.950,298.053,267.421
0.477,42.611,5.585,5.748,278.949,298.046,267.415
0.479,42.620,5.592,5.744,278.944,298.039,267.411
0.480,42.633,5.599,5.740,278.934,298.032,267.409
0.482,42.648,5.605,5.736,278.920,298.026,267.409
0.483,42.664,5.610,5.733,278.905,298.021,267.410
0.484,42.679,5.613,5.731,278.891,298.017,267.411
0.486,42.690,5.614,5.731,278.880,298.015,267.413
0.487,42.694,5.612,5.733,278.876,298.015,267.415
0.488,42.700,5.607,5.736,278.881,298.017,267.415
0.490,42.716,5.599,5.738,278.897,298.022,267.415
0.491,42.748,5.587,5.736,278.927,298.029,267.413
0.492,42.796,5.571,5.731,278.974,298.040,267.408
0.494,42.864,5.551,5.721,279.040,298.054,267.401
0.495,42.950,5.527,5.703,279.124,298.070,267.391
0.497,43.051,5.498,5.678,279.223,298.088,267.378
0.498,43.162,5.466,5.647,279.331,298.105,267.359
0.499,43.279,5.433,5.613,279.444,298.121,267.336
0.501,43.398,5.400,5.577,279.559,298.134,267.308
0.502,43.516,5.368,5.541,279.671,298.143,267.273
0.503,43.628,5.339,5.508,279.775,298.146,267.231
0.505,43.733,5.315,5.480,279.868,298.142,267.182
0.506,43.829,5.297,5.458,279.945,298.129,267.125
0.508,43.919,5.284,5.442,280.001,298.106,267.060
0.509,44.008,5.278,5.431,280.037,298.073,266.986
0.510,44.102,5.277,5.426,280.056,298.033,266.902
0.512,44.205,5.281,5.424,280.060,297.987,266.810
0.513,44.318,5.290,5.426,280.054,297.938,266.708
0.514,44.441,5.305,5.430,280.041,297.889,266.596
0.516,44.572,5.324,5.436,280.024,297.841,266.476
0.517,44.711,5.347,5.442,280.007,297.796,266.345
0.518,44.857,5.371,5.449,279.993,297.757,266.205
0.520,45.011,5.394,5.453,279.985,297.726,266.054
0.521,45.173,5.414,5.455,279.987,297.706,265.894
0.523,45.343,5.429,5.454,280.000,297.696,265.724
0.524,45.523,5.437,5.447,280.023,297.697,265.546
0.525,45.712,5.435,5.435,280.055,297.707,265.360
0.527,45.908,5.422,5.415,280.095,297.726,265.169
0.528,46.112,5.399,5.390,280.143,297.753,264.972
0.529,46.323,5.370,5.361,280.196,297.788,264.772
0.531,46.538,5.336,5.330,280.254,297.830,264.569
0.532,46.757,5.301,5.297,280.315,297.878,264.364
0.534,46.979,5.265,5.264,280.380,297.931,264.159
0.535,47.201,5.233,5.233,280.447,297.989,263.955
0.536,47.423,5.206,5.205,280.514,298.051,263.753
0.538,47.639,5.184,5.180,280.580,298.114,263.556
0.539,47.849,5.167,5.160,280.644,298.178,263.368
0.540,48.047,5.155,5.145,280.705,298.240,263.190
0.542,48.231,5.146,5.135,280.760,298.299,263.024
0.543,48.397,5.141,5.131,280.808,298.354,262.874
0.544,48.543,5.139,5.133,280.848,298.401,262.743
0.546,48.664,5.138,5.141,280.879,298.441,262.632
0.547,48.759,5.139,5.155,280.898,298.470,262.545
0.549,48.824,5.140,5.173,280.905,298.488,262.483
0.550,48.861,5.142,5.193,280.901,298.495,262.446
0.551,48.882,5.143,5.211,280.889,298.494,262.430
0.553,48.899,5.143,5.226,280.872,298.487,262.429
0.554,48.921,5.141,5.234,280.856,298.478,262.438
0.555,48.943,5.136,5.234,280.842,298.469,262.453
0.557,48.961,5.128,5.224,280.836,298.464,262.469
