"T","Distance","Radius","FreeRadius","X","Y","Z"
0.000,0.000,2.713,2.713,245.005,244.758,246.473
0.002,0.062,2.678,2.678,245.062,244.782,246.482
0.003,0.121,2.644,2.644,245.116,244.804,246.491
0.005,0.174,2.614,2.614,245.164,244.824,246.500
0.006,0.219,2.588,2.588,245.205,244.840,246.507
0.008,0.252,2.568,2.568,245.235,244.852,246.513
0.009,0.271,2.557,2.557,245.252,244.858,246.518
0.011,0.274,2.554,2.554,245.253,244.857,246.521
0.012,0.293,2.562,2.562,245.236,244.849,246.522
0.014,0.336,2.580,2.580,245.197,244.831,246.521
0.015,0.405,2.610,2.610,245.135,244.802,246.517
0.017,0.502,2.650,2.650,245.046,244.762,246.510
0.018,0.632,2.701,2.701,244.928,244.710,246.499
0.020,0.794,2.764,2.764,244.780,244.644,246.486
0.021,0.986,2.839,2.839,244.605,244.567,246.472
0.023,1.201,2.922,2.922,244.409,244.481,246.458
0.024,1.434,3.011,3.011,244.196,244.387,246.447
0.026,1.680,3.100,3.100,243.971,244.289,246.442
0.027,1.933,3.187,3.187,243.738,244.188,246.443
0.029,2.190,3.268,3.268,243.502,244.087,246.454
0.030,2.445,3.337,3.337,243.269,243.987,246.477
0.032,2.694,3.395,3.395,243.042,243.890,246.513
0.034,2.933,3.441,3.441,242.827,243.800,246.565
0.035,3.159,3.480,3.480,242.629,243.718,246.635
0.037,3.370,3.513,3.513,242.451,243.646,246.724
0.038,3.569,3.544,3.544,242.298,243.585,246.835
0.040,3.759,3.576,3.576,242.167,243.535,246.963
0.041,3.945,3.611,3.611,242.056,243.494,247.107
0.043,4.129,3.650,3.650,241.963,243.461,247.263
0.044,4.312,3.694,3.694,241.886,243.434,247.427
0.046,4.495,3.743,3.743,241.823,243.411,247.597
0.047,4.677,3.796,3.796,241.771,243.392,247.769
0.049,4.855,3.854,3.854,241.727,243.375,247.941
0.050,5.027,3.917,3.917,241.690,243.358,248.109
0.052,5.193,3.984,3.984,241.657,243.340,248.270
0.053,5.348,4.053,4.053,241.627,243.319,248.421
0.055,5.491,4.123,4.123,241.596,243.295,248.559
0.056,5.621,4.189,4.189,241.563,243.267,248.681
0.058,5.739,4.251,4.251,241.530,243.234,248.789
0.059,5.846,4.304,4.304,241.495,243.198,248.884
0.061,5.942,4.347,4.347,241.461,243.161,248.965
0.063,6.029,4.378,4.378,241.427,243.122,249.035
0.064,6.107,4.399,4.399,241.394,243.083,249.095
0.066,6.177,4.413,4.413,241.363,243.044,249.144
0.067,6.239,4.419,4.419,241.334,243.008,249.184
0.069,6.292,4.422,4.422,241.308,242.973,249.216
0.070,6.338,4.422,4.422,241.286,242.942,249.242
0.072,6.375,4.422,4.422,241.269,242.916,249.261
0.073,6.404,4.422,4.422,241.256,242.894,249.275
0.075,6.424,4.423,4.423,241.247,242.878,249.284
0.076,6.437,4.423,4.423,241.243,242.868,249.290
0.078,6.444,4.423,4.423,241.241,242.862,249.293
0.079,6.446,4.423,4.423,241.240,242.860,249.295
0.081,6.449,4.423,4.423,241.240,242.863,249.295
0.082,6.455,4.422,4.422,241.238,242.869,249.295
0.084,6.465,4.421,4.421,241.233,242.878,249.296
0.085,6.480,4.421,4.421,241.225,242.890,249.298
0.087,6.499,4.421,4.421,241.212,242.904,249.302
0.088,6.525,4.423,4.423,241.193,242.919,249.310
0.090,6.558,4.426,4.426,241.167,242.936,249.321
0.091,6.600,4.432,4.432,241.132,242.954,249.336
0.093,6.652,4.439,4.439,241.088,242.972,249.357
0.095,6.711,4.448,4.448,241.038,242.991,249.382
0.096,6.777,4.458,4.458,240.983,243.010,249.413
0.098,6.846,4.469,4.469,240.926,243.030,249.448
0.099,6.919,4.480,4.480,240.869,243.049,249.488
0.101,6.992,4.492,4.492,240.814,243.068,249.531
0.102,7.065,4.503,4.503,240.763,243.088,249.580
0.104,7.137,4.513,4.513,240.717,243.107,249.632
0.105,7.207,4.521,4.521,240.680,243.126,249.688
0.107,7.275,4.527,4.527,240.653,243.145,249.748
0.108,7.343,4.529,4.529,240.639,243.163,249.812
0.110,7.412,4.526,4.526,240.638,243.180,249.879
0.111,7.485,4.518,4.518,240.652,243.197,249.949
0.113,7.564,4.504,4.504,240.676,243.212,250.022
0.114,7.646,4.486,4.486,240.707,243.224,250.097
0.116,7.732,4.465,4.465,240.742,243.235,250.175
0.117,7.818,4.442,4.442,240.777,243.242,250.254
0.119,7.904,4.419,4.419,240.807,243.245,250.333
0.120,7.988,4.397,4.397,240.831,243.243,250.414
0.122,8.070,4.377,4.377,240.844,243.237,250.495
0.123,8.151,4.360,4.360,240.842,243.225,250.575
0.125,8.235,4.343,4.343,240.823,243.206,250.655
0.127,8.327,4.327,4.327,240.782,243.181,250.733
0.128,8.433,4.309,4.309,240.717,243.148,250.810
0.130,8.557,4.288,4.288,240.627,243.109,250.886
0.131,8.698,4.262,4.262,240.517,243.064,250.962
0.133,8.854,4.231,4.231,240.390,243.016,251.039
0.134,9.021,4.195,4.195,240.251,242.967,251.118
0.136,9.197,4.156,4.156,240.105,242.917,251.200
0.137,9.377,4.115,4.115,239.954,242.869,251.287
0.139,9.559,4.074,4.074,239.804,242.824,251.379
0.140,9.739,4.034,4.034,239.658,242.785,251.478
0.142,9.916,3.997,3.997,239.521,242.753,251.585
0.143,10.087,3.964,3.964,239.397,242.729,251.700
0.145,10.253,3.936,3.936,239.290,242.716,251.825
0.146,10.414,3.916,3.916,239.203,242.714,251.962
0.148,10.576,3.905,3.905,239.137,242.724,252.109
0.149,10.741,3.905,3.905,239.087,242.742,252.266
0.151,10.912,3.917,3.917,239.049,242.764,252.431
0.152,11.089,3.943,3.943,239.020,242.790,252.603
0.154,11.271,3.981,3.981,238.994,242.814,252.781
0.155,11.456,4.026,4.026,238.968,242.835,252.964
0.157,11.645,4.075,4.075,238.937,242.849,253.150
0.159,11.837,4.123,4.123,238.898,242.854,253.337
0.160,12.032,4.167,4.167,238.846,242.846,253.526
0.162,12.233,4.201,4.201,238.778,242.823,253.714
0.163,12.444,4.223,4.223,238.689,242.782,253.900
0.165,12.668,4.237,4.237,238.575,242.719,254.083
0.166,12.910,4.249,4.249,238.437,242.636,254.262
0.168,13.167,4.265,4.265,238.278,242.536,254.438
0.169,13.439,4.291,4.291,238.104,242.420,254.611
0.171,13.722,4.331,4.331,237.917,242.291,254.781
0.172,14.014,4.393,4.393,237.720,242.152,254.947
0.174,14.311,4.477,4.477,237.519,242.007,255.110
0.175,14.610,4.579,4.579,237.316,241.856,255.269
0.177,14.906,4.695,4.695,237.116,241.704,255.426
0.178,15.197,4.820,4.820,236.922,241.552,255.579
0.180,15.477,4.949,4.949,236.738,241.404,255.730
0.181,15.743,5.077,5.077,236.568,241.261,255.877
0.183,15.993,5.200,5.200,236.415,241.127,256.022
0.184,16.225,5.315,5.315,236.279,241.002,256.163
0.186,16.440,5.424,5.424,236.160,240.886,256.299
0.188,16.639,5.525,5.525,236.056,240.778,256.431
0.189,16.824,5.618,5.618,235.966,240.678,256.556
0.191,16.993,5.704,5.704,235.888,240.585,256.674
0.192,17.149,5.782,5.782,235.821,240.499,256.785
0.194,17.291,5.851,5.851,235.763,240.419,256.887
0.195,17.419,5.913,5.913,235.714,240.345,256.980
0.197,17.534,5.966,5.966,235.672,240.276,257.063
0.198,17.636,6.012,6.012,235.636,240.213,257.135
0.200,17.726,6.051,6.051,235.604,240.155,257.194
0.201,17.804,6.081,6.081,235.575,240.100,257.242
0.203,17.871,6.104,6.104,235.549,240.050,257.277
0.204,17.929,6.121,6.121,235.525,240.003,257.303
0.206,17.981,6.133,6.133,235.502,239.960,257.319
0.207,18.026,6.142,6.142,235.480,239.921,257.329
0.209,18.068,6.151,6.151,235.458,239.885,257.333
0.210,18.107,6.160,6.160,235.437,239.853,257.333
0.212,18.144,6.172,6.172,235.415,239.824,257.330
0.213,18.178,6.188,6.188,235.392,239.798,257.326
0.215,18.212,6.208,6.208,235.367,239.776,257.322
0.216,18.246,6.230,6.230,235.340,239.756,257.321
0.218,18.279,6.253,6.253,235.311,239.739,257.322
0.220,18.315,6.276,6.276,235.279,239.725,257.328
0.221,18.353,6.296,6.296,235.244,239.713,257.339
0.223,18.395,6.312,6.312,235.207,239.703,257.355
0.224,18.439,6.325,6.325,235.168,239.694,257.374
0.226,18.485,6.333,6.333,235.129,239.686,257.396
0.227,18.533,6.339,6.339,235.088,239.679,257.421
0.229,18.583,6.342,6.342,235.048,239.671,257.449
0.230,18.633,6.344,6.344,235.008,239.664,257.479
0.232,18.684,6.346,6.346,234.968,239.655,257.510
0.233,18.735,6.347,6.347,234.930,239.645,257.543
0.235,18.786,6.350,6.350,234.894,239.633,257.576
0.236,18.835,6.353,6.353,234.860,239.619,257.609
0.238,18.884,6.357,6.357,234.829,239.602,257.642
0.239,18.932,6.363,6.363,234.800,239.584,257.676
0.241,18.980,6.371,6.371,234.772,239.564,257.709
0.242,19.028,6.381,6.381,234.744,239.544,257.742
0.244,19.076,6.393,6.393,234.716,239.524,257.777
0.245,19.125,6.406,6.406,234.687,239.505,257.811
0.247,19.176,6.417,6.417,234.655,239.489,257.847
0.248,19.228,6.424,6.424,234.621,239.475,257.884
0.250,19.283,6.426,6.426,234.582,239.465,257.922
0.252,19.342,6.420,6.420,234.539,239.459,257.962
0.253,19.406,6.404,6.404,234.491,239.458,258.003
0.255,19.476,6.379,6.379,234.436,239.464,258.046
0.256,19.553,6.349,6.348,234.374,239.476,258.091
0.258,19.638,6.317,6.316,234.306,239.494,258.139
0.259,19.730,6.288,6.287,234.235,239.517,258.192
0.261,19.827,6.266,6.264,234.162,239.544,258.250
0.262,19.931,6.254,6.253,234.087,239.575,258.316
0.264,20.039,6.256,6.257,234.014,239.607,258.389
0.265,20.153,6.269,6.273,233.944,239.641,258.471
0.267,20.272,6.286,6.295,233.878,239.676,258.564
0.268,20.397,6.300,6.316,233.818,239.711,258.668
0.270,20.529,6.304,6.331,233.765,239.744,258.785
0.271,20.671,6.292,6.334,233.722,239.775,258.916
0.273,20.823,6.256,6.318,233.689,239.804,259.062
0.274,20.987,6.193,6.279,233.669,239.828,259.223
0.276,21.163,6.108,6.222,233.659,239.849,259.397
0.277,21.348,6.008,6.150,233.657,239.865,259.581
0.279,21.539,5.902,6.069,233.661,239.878,259.772
0.280,21.734,5.797,5.985,233.669,239.886,259.966
0.282,21.929,5.699,5.901,233.679,239.889,260.161
0.284,22.121,5.616,5.822,233.690,239.888,260.353
0.285,22.309,5.550,5.752,233.698,239.882,260.540
0.287,22.487,5.501,5.689,233.703,239.871,260.718
0.288,22.654,5.464,5.634,233.702,239.855,260.885
0.290,22.808,5.438,5.586,233.692,239.834,261.037
0.291,22.946,5.421,5.544,233.673,239.807,261.170
0.293,23.069,5.409,5.509,233.643,239.775,261.285
0.294,23.180,5.401,5.479,233.602,239.739,261.383
0.296,23.285,5.395,5.454,233.553,239.701,261.468
0.297,23.387,5.390,5.435,233.497,239.661,261.542
0.299,23.486,5.384,5.420,233.435,239.621,261.609
0.300,23.586,5.377,5.409,233.369,239.581,261.672
0.302,23.686,5.366,5.403,233.299,239.545,261.734
0.303,23.787,5.351,5.399,233.229,239.512,261.799
0.305,23.891,5.331,5.399,233.158,239.484,261.869
0.306,23.998,5.306,5.399,233.088,239.462,261.948
0.308,24.112,5.277,5.398,233.021,239.448,262.039
0.309,24.236,5.244,5.394,232.959,239.442,262.145
0.311,24.371,5.209,5.386,232.901,239.446,262.267
0.313,24.518,5.172,5.372,232.849,239.458,262.404
0.314,24.675,5.134,5.349,232.801,239.476,262.553
0.316,24.840,5.094,5.318,232.758,239.500,262.710
0.317,25.011,5.055,5.282,232.719,239.527,262.874
0.319,25.185,5.016,5.242,232.684,239.557,263.042
0.320,25.359,4.979,5.201,232.653,239.588,263.210
0.322,25.530,4.943,5.160,232.626,239.618,263.377
0.323,25.697,4.909,5.123,232.602,239.646,263.539
0.325,25.856,4.879,5.091,232.581,239.671,263.695
0.326,26.004,4.852,5.063,232.564,239.692,263.841
0.328,26.139,4.829,5.039,232.549,239.706,263.974
0.329,26.260,4.810,5.017,232.537,239.713,264.094
0.331,26.366,4.794,4.997,232.528,239.715,264.200
0.332,26.459,4.783,4.978,232.520,239.712,264.293
0.334,26.540,4.775,4.959,232.513,239.706,264.373
0.335,26.609,4.772,4.941,232.508,239.697,264.441
0.337,26.665,4.772,4.924,232.504,239.687,264.496
0.338,26.711,4.772,4.911,232.500,239.676,264.541
0.340,26.745,4.773,4.904,232.496,239.667,264.573
0.341,26.769,4.772,4.904,232.493,239.659,264.595
0.343,26.782,4.768,4.913,232.488,239.655,264.607
0.345,26.788,4.760,4.934,232.483,239.654,264.609
0.346,26.799,4.748,4.962,232.476,239.659,264.601
0.348,26.820,4.734,4.995,232.468,239.669,264.585
0.349,26.847,4.718,5.026,232.454,239.682,264.565
0.351,26.879,4.703,5.051,232.434,239.697,264.544
0.352,26.916,4.688,5.066,232.405,239.710,264.527
0.354,26.959,4.676,5.066,232.365,239.721,264.516
0.355,27.013,4.666,5.046,232.311,239.728,264.516
0.357,27.084,4.656,5.009,232.242,239.727,264.530
0.358,27.177,4.642,4.956,232.155,239.718,264.563
0.360,27.299,4.620,4.888,232.047,239.698,264.616
0.361,27.454,4.587,4.808,231.918,239.666,264.696
0.363,27.648,4.538,4.718,231.764,239.618,264.804
0.364,27.886,4.472,4.618,231.583,239.555,264.945
0.366,28.167,4.389,4.514,231.376,239.475,265.117
0.367,28.483,4.297,4.411,231.149,239.382,265.317
0.369,28.828,4.204,4.316,230.906,239.278,265.538
0.370,29.192,4.119,4.234,230.651,239.167,265.774
0.372,29.569,4.050,4.173,230.390,239.051,266.020
0.373,29.951,4.004,4.137,230.127,238.934,266.270
0.375,30.329,3.989,4.133,229.868,238.818,266.519
0.377,30.696,4.002,4.156,229.616,238.706,266.762
0.378,31.043,4.036,4.199,229.378,238.601,266.992
0.380,31.364,4.084,4.253,229.157,238.506,267.204
0.381,31.649,4.139,4.312,228.958,238.425,267.392
0.383,31.892,4.196,4.367,228.787,238.359,267.552
0.384,32.092,4.247,4.412,228.644,238.309,267.682
0.386,32.252,4.288,4.441,228.528,238.272,267.786
0.387,32.378,4.319,4.458,228.436,238.246,267.866
0.389,32.473,4.343,4.465,228.365,238.227,267.928
0.390,32.542,4.360,4.466,228.315,238.214,267.974
0.392,32.591,4.373,4.465,228.282,238.203,268.008
0.393,32.624,4.382,4.464,228.264,238.192,268.033
0.395,32.648,4.389,4.468,228.259,238.178,268.053
0.396,32.676,4.396,4.477,228.266,238.158,268.071
0.398,32.714,4.401,4.491,228.281,238.131,268.092
0.399,32.766,4.406,4.509,228.303,238.092,268.118
0.401,32.834,4.411,4.532,228.329,238.039,268.153
0.402,32.920,4.416,4.558,228.359,237.974,268.200
0.404,33.023,4.422,4.588,228.393,237.897,268.260
0.405,33.143,4.428,4.619,228.430,237.811,268.336
0.407,33.280,4.435,4.652,228.470,237.719,268.429
0.409,33.435,4.442,4.684,228.515,237.622,268.540
0.410,33.607,4.449,4.714,228.562,237.523,268.673
0.412,33.798,4.458,4.741,228.613,237.425,268.829
0.413,34.010,4.466,4.762,228.668,237.328,269.009
0.415,34.243,4.475,4.776,228.726,237.236,269.215
0.416,34.500,4.486,4.783,228.788,237.151,269.450
0.418,34.784,4.502,4.789,228.853,237.075,269.715
0.419,35.095,4.525,4.796,228.922,237.010,270.012
0.421,35.431,4.560,4.810,228.993,236.956,270.336
0.422,35.786,4.610,4.834,229.068,236.913,270.681
0.424,36.153,4.677,4.873,229.144,236.878,271.038
0.425,36.525,4.766,4.931,229.221,236.852,271.400
0.427,36.894,4.871,5.006,229.300,236.832,271.761
0.428,37.254,4.987,5.094,229.378,236.818,272.112
0.430,37.598,5.106,5.190,229.456,236.809,272.446
0.431,37.917,5.222,5.288,229.534,236.804,272.756
0.433,38.205,5.328,5.384,229.609,236.800,273.034
0.434,38.456,5.416,5.474,229.683,236.798,273.273
0.436,38.661,5.482,5.554,229.753,236.797,273.466
0.438,38.816,5.528,5.623,229.821,236.794,273.605
0.439,38.925,5.558,5.680,229.883,236.791,273.695
0.441,38.999,5.577,5.726,229.939,236.788,273.744
0.442,39.049,5.588,5.762,229.986,236.786,273.759
0.444,39.086,5.595,5.785,230.022,236.784,273.750
0.445,39.122,5.602,5.798,230.046,236.784,273.724
0.447,39.157,5.609,5.799,230.056,236.787,273.689
0.448,39.193,5.615,5.789,230.049,236.793,273.655
0.450,39.230,5.617,5.768,230.024,236.802,273.629
0.451,39.278,5.612,5.735,229.979,236.815,273.619
0.453,39.349,5.598,5.692,229.913,236.833,273.634
0.454,39.454,5.572,5.637,229.822,236.857,273.682
0.456,39.602,5.533,5.572,229.706,236.886,273.770
0.457,39.793,5.481,5.500,229.568,236.921,273.896
0.459,40.019,5.421,5.424,229.410,236.961,274.053
0.460,40.273,5.356,5.349,229.238,237.004,274.234
0.462,40.549,5.290,5.279,229.054,237.051,274.434
0.463,40.838,5.226,5.218,228.862,237.100,274.646
0.465,41.135,5.168,5.170,228.668,237.151,274.864
0.466,41.430,5.118,5.138,228.474,237.203,275.081
0.468,41.717,5.075,5.117,228.284,237.255,275.290
0.470,41.989,5.038,5.105,228.102,237.306,275.485
0.471,42.238,5.006,5.097,227.933,237.356,275.661
0.473,42.457,4.977,5.090,227.780,237.403,275.810
0.474,42.640,4.950,5.079,227.646,237.448,275.927
0.476,42.791,4.923,5.061,227.531,237.491,276.015
0.477,42.913,4.897,5.035,227.435,237.531,276.077
0.479,43.010,4.871,5.005,227.356,237.570,276.119
0.480,43.089,4.846,4.972,227.292,237.608,276.144
0.482,43.152,4.822,4.940,227.243,237.646,276.157
0.483,43.204,4.800,4.911,227.207,237.684,276.162
0.485,43.250,4.780,4.888,227.183,237.723,276.164
0.486,43.292,4.763,4.872,227.171,237.763,276.167
0.488,43.335,4.747,4.862,227.168,237.805,276.175
0.489,43.383,4.731,4.855,227.174,237.849,276.194
0.491,43.443,4.716,4.847,227.187,237.897,276.227
0.492,43.517,4.699,4.837,227.207,237.947,276.278
0.494,43.607,4.681,4.822,227.230,238.002,276.346
0.495,43.713,4.660,4.798,227.257,238.059,276.430
0.497,43.832,4.636,4.764,227.284,238.120,276.529
0.498,43.963,4.608,4.725,227.310,238.183,276.641
0.500,44.106,4.578,4.683,227.333,238.249,276.765
0.502,44.257,4.545,4.642,227.352,238.318,276.899
0.503,44.417,4.508,4.606,227.364,238.389,277.041
0.505,44.584,4.469,4.577,227.367,238.463,277.191
0.506,44.757,4.428,4.559,227.360,238.538,277.346
0.508,44.935,4.385,4.552,227.341,238.616,277.506
0.509,45.119,4.344,4.557,227.308,238.695,277.668
0.511,45.308,4.305,4.571,227.260,238.776,277.832
0.512,45.499,4.273,4.595,227.200,238.858,277.994
0.514,45.690,4.248,4.626,227.131,238.939,278.153
0.515,45.878,4.233,4.665,227.056,239.019,278.306
0.517,46.059,4.230,4.710,226.980,239.098,278.450
0.518,46.229,4.234,4.756,226.905,239.174,278.583
0.520,46.385,4.242,4.798,226.835,239.246,278.702
0.521,46.523,4.250,4.833,226.774,239.313,278.805
0.523,46.639,4.254,4.854,226.724,239.375,278.890
0.524,46.731,4.249,4.858,226.690,239.431,278.953
0.526,46.796,4.232,4.840,226.674,239.480,278.994
0.527,46.839,4.203,4.800,226.680,239.521,279.008
0.529,46.885,4.169,4.746,226.709,239.553,278.996
0.530,46.946,4.136,4.686,226.756,239.577,278.963
0.532,47.021,4.111,4.626,226.812,239.594,278.917
0.534,47.101,4.099,4.576,226.871,239.604,278.865
0.535,47.176,4.107,4.542,226.926,239.609,278.813
0.537,47.237,4.140,4.532,226.969,239.608,278.769
0.538,47.275,4.190,4.545,226.992,239.602,278.739
0.540,47.288,4.246,4.579,226.990,239.593,278.732
0.541,47.331,4.293,4.632,226.954,239.581,278.753
0.543,47.427,4.319,4.700,226.878,239.566,278.810
0.544,47.587,4.312,4.781,226.754,239.549,278.909
0.546,47.821,4.259,4.872,226.575,239.532,279.059
0.547,48.133,4.155,4.972,226.338,239.514,279.261
0.549,48.513,4.019,5.079,226.052,239.495,279.510
0.550,48.950,3.871,5.191,225.724,239.474,279.799
0.552,49.432,3.730,5.307,225.366,239.452,280.120
0.553,49.948,3.617,5.427,224.985,239.428,280.467
0.555,50.484,3.553,5.550,224.592,239.400,280.831
0.556,51.031,3.556,5.673,224.195,239.370,281.206
0.558,51.576,3.628,5.792,223.804,239.337,281.584
0.559,52.108,3.752,5.901,223.428,239.299,281.958
0.561,52.615,3.912,5.991,223.077,239.257,282.322
0.563,53.086,4.092,6.055,222.760,239.211,282.666
0.564,53.509,4.275,6.086,222.486,239.159,282.985
0.566,53.881,4.446,6.077,222.259,239.102,283.274
0.567,54.204,4.591,6.022,222.077,239.041,283.535
0.569,54.485,4.708,5.929,221.934,238.976,283.768
0.570,54.729,4.802,5.810,221.826,238.910,283.976
0.572,54.941,4.876,5.677,221.748,238.842,284.161
0.573,55.126,4.932,5.540,221.695,238.774,284.325
0.575,55.288,4.973,5.412,221.662,238.708,284.469
0.576,55.431,5.005,5.303,221.646,238.643,284.596
0.578,55.558,5.027,5.221,221.640,238.581,284.706
0.579,55.671,5.043,5.162,221.641,238.524,284.803
0.581,55.771,5.054,5.121,221.643,238.471,284.888
0.582,55.859,5.060,5.094,221.642,238.425,284.963
0.584,55.937,5.063,5.078,221.636,238.385,285.030
0.585,56.008,5.065,5.069,221.625,238.352,285.092
0.587,56.076,5.067,5.061,221.613,238.326,285.153
0.588,56.143,5.070,5.056,221.601,238.306,285.216
0.590,56.213,5.073,5.053,221.590,238.293,285.284
0.591,56.290,5.077,5.055,221.582,238.286,285.361
0.593,56.378,5.083,5.062,221.580,238.286,285.449
0.595,56.482,5.090,5.077,221.585,238.291,285.552
0.596,56.605,5.099,5.099,221.598,238.303,285.674
0.598,56.751,5.110,5.131,221.623,238.321,285.817
0.599,56.925,5.123,5.170,221.660,238.345,285.985
0.601,57.129,5.138,5.214,221.711,238.375,286.180
0.602,57.364,5.156,5.262,221.777,238.410,286.403
0.604,57.625,5.176,5.312,221.855,238.449,286.649
0.605,57.903,5.198,5.362,221.942,238.490,286.910
0.607,58.194,5.223,5.409,222.038,238.533,287.182
0.608,58.492,5.250,5.453,222.138,238.575,287.458
0.610,58.789,5.279,5.492,222.241,238.616,287.734
0.611,59.079,5.310,5.527,222.344,238.653,288.003
0.613,59.357,5.343,5.558,222.445,238.686,288.260
0.614,59.615,5.377,5.582,222.541,238.713,288.498
0.616,59.849,5.411,5.601,222.631,238.732,288.712
0.617,60.051,5.447,5.613,222.712,238.743,288.897
0.619,60.215,5.482,5.620,222.781,238.744,289.047
0.620,60.343,5.515,5.623,222.838,238.735,289.161
0.622,60.439,5.545,5.625,222.883,238.720,289.243
