"T","Distance","Radius","FreeRadius","X","Y","Z"
0.000,0.000,2.819,2.819,201.848,185.618,169.161
0.001,0.021,2.813,2.813,201.842,185.603,169.175
0.003,0.042,2.807,2.807,201.837,185.588,169.189
0.004,0.067,2.802,2.802,201.833,185.571,169.206
0.006,0.094,2.800,2.800,201.832,185.552,169.226
0.007,0.128,2.801,2.801,201.834,185.530,169.251
0.008,0.169,2.805,2.805,201.839,185.504,169.283
0.010,0.218,2.814,2.814,201.850,185.475,169.321
0.011,0.279,2.829,2.829,201.866,185.440,169.368
0.013,0.352,2.848,2.848,201.888,185.400,169.425
0.014,0.439,2.874,2.874,201.917,185.354,169.493
0.015,0.542,2.905,2.905,201.954,185.301,169.573
0.017,0.663,2.942,2.942,201.999,185.240,169.667
0.018,0.802,2.985,2.985,202.054,185.170,169.775
0.020,0.960,3.035,3.035,202.118,185.093,169.897
0.021,1.134,3.090,3.090,202.189,185.008,170.030
0.022,1.319,3.151,3.151,202.266,184.919,170.173
0.024,1.514,3.217,3.217,202.348,184.826,170.323
0.025,1.713,3.288,3.288,202.432,184.730,170.477
0.027,1.916,3.363,3.363,202.518,184.633,170.632
0.028,2.117,3.440,3.440,202.604,184.538,170.787
0.029,2.314,3.520,3.520,202.688,184.444,170.939
0.031,2.503,3.601,3.601,202.768,184.353,171.084
0.032,2.682,3.682,3.682,202.844,184.268,171.222
0.034,2.846,3.762,3.762,202.913,184.188,171.348
0.035,2.993,3.839,3.839,202.974,184.117,171.461
0.036,3.120,3.912,3.912,203.025,184.055,171.559
0.038,3.228,3.977,3.977,203.069,184.001,171.642
0.039,3.319,4.035,4.035,203.105,183.957,171.712
0.041,3.394,4.082,4.082,203.136,183.919,171.770
0.042,3.457,4.118,4.118,203.162,183.890,171.818
0.043,3.508,4.143,4.143,203.186,183.866,171.857
0.045,3.551,4.161,4.161,203.210,183.849,171.889
0.046,3.587,4.171,4.171,203.233,183.838,171.915
0.047,3.621,4.175,4.175,203.258,183.831,171.936
0.049,3.656,4.176,4.176,203.287,183.829,171.955
0.050,3.694,4.174,4.174,203.320,183.831,171.973
0.052,3.737,4.170,4.170,203.360,183.836,171.990
0.053,3.789,4.167,4.167,203.408,183.844,172.010
0.054,3.850,4.163,4.163,203.464,183.853,172.032
0.056,3.919,4.160,4.160,203.527,183.865,172.056
0.057,3.993,4.157,4.157,203.595,183.878,172.082
0.059,4.072,4.155,4.155,203.668,183.892,172.109
0.060,4.154,4.154,4.154,203.744,183.906,172.138
0.061,4.238,4.155,4.155,203.821,183.920,172.167
0.063,4.321,4.158,4.158,203.898,183.933,172.196
0.064,4.404,4.161,4.161,203.974,183.946,172.225
0.066,4.484,4.165,4.165,204.048,183.957,172.253
0.067,4.559,4.169,4.169,204.118,183.967,172.280
0.068,4.629,4.173,4.173,204.182,183.974,172.306
0.070,4.692,4.176,4.176,204.240,183.979,172.330
0.071,4.746,4.177,4.177,204.290,183.980,172.352
0.073,4.794,4.178,4.178,204.333,183.978,172.372
0.074,4.836,4.177,4.177,204.371,183.974,172.390
0.075,4.875,4.177,4.177,204.406,183.967,172.406
0.077,4.914,4.177,4.177,204.440,183.957,172.421
0.078,4.954,4.179,4.179,204.475,183.945,172.435
0.080,4.996,4.183,4.183,204.513,183.931,172.449
0.081,5.044,4.190,4.190,204.556,183.915,172.462
0.082,5.098,4.201,4.201,204.606,183.898,172.474
0.084,5.161,4.214,4.214,204.665,183.879,172.487
0.085,5.234,4.230,4.230,204.734,183.859,172.500
0.087,5.320,4.249,4.249,204.816,183.839,172.514
0.088,5.420,4.269,4.269,204.913,183.817,172.529
0.089,5.536,4.291,4.291,205.025,183.795,172.544
0.091,5.663,4.315,4.315,205.150,183.773,172.561
0.092,5.801,4.339,4.339,205.284,183.750,172.578
0.094,5.945,4.364,4.364,205.425,183.728,172.595
0.095,6.092,4.389,4.389,205.570,183.706,172.613
0.096,6.240,4.414,4.414,205.715,183.685,172.630
0.098,6.385,4.438,4.438,205.858,183.665,172.647
0.099,6.525,4.460,4.460,205.996,183.646,172.662
0.101,6.656,4.481,4.481,206.125,183.628,172.677
0.102,6.775,4.500,4.500,206.242,183.612,172.691
0.103,6.880,4.517,4.517,206.345,183.598,172.703
0.105,6.967,4.531,4.531,206.431,183.586,172.713
0.106,7.034,4.544,4.544,206.496,183.577,172.721
0.108,7.080,4.555,4.555,206.542,183.569,172.728
0.109,7.109,4.563,4.563,206.570,183.564,172.732
0.110,7.122,4.570,4.570,206.583,183.561,172.735
0.112,7.125,4.576,4.576,206.584,183.559,172.736
0.113,7.133,4.580,4.580,206.575,183.559,172.736
0.115,7.149,4.582,4.582,206.559,183.561,172.735
0.116,7.170,4.582,4.582,206.538,183.563,172.733
0.117,7.193,4.582,4.582,206.516,183.566,172.730
0.119,7.216,4.579,4.579,206.494,183.570,172.727
0.120,7.235,4.575,4.575,206.475,183.574,172.723
0.122,7.249,4.570,4.570,206.462,183.578,172.720
0.123,7.256,4.563,4.563,206.458,183.583,172.716
0.124,7.264,4.556,4.556,206.463,183.587,172.713
0.126,7.279,4.549,4.549,206.477,183.591,172.711
0.127,7.300,4.542,4.542,206.498,183.594,172.709
0.128,7.326,4.538,4.538,206.525,183.598,172.710
0.130,7.356,4.536,4.536,206.554,183.601,172.712
0.131,7.387,4.537,4.537,206.584,183.603,172.717
0.133,7.418,4.541,4.541,206.614,183.606,172.724
0.134,7.447,4.548,4.548,206.641,183.608,172.735
0.135,7.474,4.555,4.555,206.664,183.609,172.750
0.137,7.499,4.562,4.562,206.680,183.610,172.769
0.138,7.524,4.567,4.567,206.689,183.611,172.792
0.140,7.553,4.567,4.567,206.687,183.612,172.821
0.141,7.589,4.562,4.562,206.673,183.611,172.855
0.142,7.635,4.551,4.551,206.649,183.610,172.894
0.144,7.688,4.532,4.532,206.620,183.608,172.938
0.145,7.743,4.507,4.507,206.591,183.603,172.984
0.147,7.799,4.477,4.477,206.566,183.595,173.034
0.148,7.853,4.442,4.442,206.550,183.584,173.084
0.149,7.906,4.403,4.403,206.549,183.568,173.135
0.151,7.964,4.361,4.361,206.568,183.547,173.186
0.152,8.035,4.316,4.316,206.611,183.521,173.235
0.154,8.128,4.270,4.270,206.684,183.488,173.282
0.155,8.250,4.223,4.223,206.791,183.448,173.326
0.156,8.409,4.178,4.178,206.938,183.400,173.366
0.158,8.612,4.135,4.135,207.129,183.344,173.401
0.159,8.861,4.097,4.097,207.367,183.279,173.429
0.161,9.152,4.064,4.064,207.648,183.206,173.453
0.162,9.477,4.037,4.037,207.964,183.127,173.472
0.163,9.830,4.019,4.019,208.305,183.043,173.488
0.165,10.201,4.006,4.006,208.666,182.956,173.502
0.166,10.583,3.999,3.999,209.037,182.867,173.514
0.168,10.968,3.997,3.997,209.412,182.778,173.525
0.169,11.348,3.999,3.999,209.782,182.691,173.536
0.170,11.715,4.003,4.003,210.139,182.606,173.549
0.172,12.061,4.009,4.009,210.475,182.526,173.563
0.173,12.379,4.017,4.017,210.783,182.452,173.581
0.175,12.660,4.025,4.025,211.055,182.386,173.602
0.176,12.897,4.036,4.036,211.284,182.328,173.629
0.177,13.088,4.049,4.049,211.466,182.280,173.660
0.179,13.240,4.065,4.065,211.607,182.238,173.697
0.180,13.360,4.085,4.085,211.714,182.199,173.739
0.182,13.458,4.109,4.109,211.791,182.162,173.785
0.183,13.541,4.138,4.138,211.845,182.123,173.836
0.184,13.620,4.171,4.171,211.881,182.081,173.891
0.186,13.701,4.206,4.206,211.906,182.031,173.950
0.187,13.790,4.242,4.242,211.925,181.972,174.013
0.189,13.889,4.277,4.277,211.944,181.901,174.080
0.190,14.003,4.311,4.311,211.969,181.816,174.151
0.191,14.134,4.342,4.342,212.005,181.713,174.225
0.193,14.289,4.368,4.368,212.059,181.591,174.302
0.194,14.470,4.391,4.391,212.136,181.447,174.382
0.196,14.679,4.414,4.414,212.234,181.283,174.464
0.197,14.910,4.442,4.442,212.353,181.103,174.549
0.198,15.160,4.478,4.478,212.488,180.911,174.635
0.200,15.425,4.525,4.525,212.639,180.711,174.721
0.201,15.701,4.588,4.588,212.802,180.506,174.808
0.203,15.983,4.669,4.669,212.976,180.301,174.894
0.204,16.267,4.769,4.769,213.157,180.099,174.979
0.205,16.549,4.883,4.883,213.343,179.905,175.063
0.207,16.825,5.007,5.007,213.532,179.721,175.144
0.208,17.091,5.135,5.135,213.721,179.552,175.223
0.209,17.342,5.261,5.261,213.909,179.402,175.299
0.211,17.576,5.381,5.381,214.091,179.275,175.370
0.212,17.791,5.491,5.491,214.268,179.172,175.437
0.214,17.989,5.585,5.585,214.437,179.091,175.500
0.215,18.171,5.666,5.666,214.598,179.030,175.558
0.216,18.339,5.735,5.735,214.751,178.987,175.612
0.218,18.493,5.795,5.795,214.895,178.960,175.661
0.219,18.634,5.848,5.848,215.028,178.946,175.705
0.221,18.762,5.896,5.896,215.150,178.943,175.744
0.222,18.878,5.940,5.940,215.261,178.948,175.778
0.223,18.982,5.983,5.983,215.360,178.959,175.807
0.225,19.072,6.024,6.024,215.446,178.975,175.831
0.226,19.149,6.062,6.062,215.518,178.991,175.849
0.228,19.210,6.096,6.096,215.576,179.008,175.863
0.229,19.256,6.125,6.125,215.619,179.021,175.870
0.230,19.286,6.147,6.147,215.648,179.031,175.873
0.232,19.305,6.162,6.162,215.664,179.037,175.872
0.233,19.313,6.168,6.168,215.671,179.041,175.869
0.235,19.319,6.167,6.167,215.670,179.043,175.863
0.236,19.329,6.160,6.161,215.662,179.042,175.856
0.237,19.343,6.151,6.152,215.650,179.040,175.850
0.239,19.359,6.141,6.142,215.635,179.036,175.845
0.240,19.375,6.133,6.134,215.620,179.031,175.842
0.242,19.390,6.130,6.130,215.606,179.026,175.842
0.243,19.403,6.133,6.133,215.596,179.020,175.846
0.244,19.415,6.143,6.142,215.590,179.015,175.855
0.246,19.431,6.160,6.157,215.592,179.009,175.870
0.247,19.455,6.180,6.176,215.602,179.005,175.891
0.249,19.488,6.202,6.198,215.620,179.000,175.918
0.250,19.529,6.226,6.222,215.645,178.995,175.951
0.251,19.577,6.248,6.246,215.676,178.989,175.987
0.253,19.631,6.268,6.269,215.713,178.982,176.026
0.254,19.690,6.284,6.289,215.754,178.972,176.067
0.256,19.753,6.296,6.308,215.799,178.960,176.109
0.257,19.818,6.305,6.324,215.847,178.946,176.151
0.258,19.886,6.310,6.337,215.897,178.927,176.192
0.260,19.954,6.311,6.349,215.948,178.905,176.232
0.261,20.023,6.309,6.357,216.000,178.878,176.268
0.263,20.092,6.304,6.364,216.051,178.846,176.301
0.264,20.160,6.295,6.368,216.102,178.809,176.329
0.265,20.230,6.284,6.368,216.151,178.766,176.353
0.267,20.302,6.268,6.366,216.202,178.719,176.370
0.268,20.377,6.249,6.359,216.256,178.668,176.383
0.270,20.456,6.226,6.347,216.314,178.614,176.389
0.271,20.541,6.199,6.329,216.377,178.558,176.390
0.272,20.633,6.167,6.306,216.449,178.499,176.385
0.274,20.734,6.131,6.276,216.529,178.441,176.373
0.275,20.843,6.090,6.239,216.620,178.382,176.355
0.277,20.965,6.043,6.195,216.723,178.323,176.330
0.278,21.098,5.990,6.143,216.840,178.266,176.299
0.279,21.247,5.930,6.083,216.973,178.212,176.261
0.281,21.412,5.862,6.015,217.123,178.160,176.215
0.282,21.594,5.786,5.939,217.290,178.112,176.163
0.284,21.791,5.701,5.855,217.473,178.067,176.104
0.285,22.000,5.608,5.763,217.668,178.025,176.041
0.286,22.218,5.510,5.666,217.871,177.986,175.973
0.288,22.441,5.409,5.568,218.080,177.950,175.903
0.289,22.666,5.309,5.471,218.291,177.917,175.831
0.291,22.890,5.213,5.377,218.500,177.886,175.758
0.292,23.108,5.124,5.291,218.704,177.857,175.686
0.293,23.319,5.043,5.214,218.900,177.830,175.616
0.295,23.517,4.974,5.148,219.085,177.805,175.548
0.296,23.700,4.916,5.092,219.255,177.781,175.484
0.297,23.864,4.868,5.045,219.406,177.758,175.426
0.299,24.006,4.830,5.005,219.536,177.737,175.373
0.300,24.125,4.801,4.971,219.644,177.716,175.327
0.302,24.224,4.781,4.942,219.733,177.698,175.286
0.303,24.306,4.770,4.916,219.805,177.681,175.252
0.304,24.372,4.765,4.892,219.863,177.668,175.222
0.306,24.426,4.765,4.870,219.909,177.658,175.197
0.307,24.470,4.766,4.852,219.947,177.651,175.176
0.309,24.507,4.764,4.836,219.979,177.649,175.158
0.310,24.539,4.757,4.825,220.009,177.652,175.144
0.311,24.571,4.741,4.817,220.037,177.661,175.132
0.313,24.607,4.712,4.815,220.068,177.676,175.123
0.314,24.650,4.668,4.817,220.104,177.697,175.114
0.316,24.702,4.612,4.823,220.148,177.725,175.108
0.317,24.767,4.549,4.830,220.202,177.761,175.101
0.318,24.845,4.486,4.838,220.267,177.802,175.095
0.320,24.933,4.426,4.843,220.345,177.844,175.087
0.321,25.033,4.377,4.845,220.435,177.885,175.077
0.323,25.143,4.343,4.841,220.538,177.921,175.064
0.324,25.265,4.329,4.829,220.656,177.950,175.048
0.325,25.401,4.334,4.809,220.788,177.967,175.026
0.327,25.551,4.349,4.779,220.936,177.971,174.998
0.328,25.720,4.368,4.739,221.101,177.957,174.964
0.330,25.909,4.383,4.688,221.282,177.922,174.922
0.331,26.122,4.384,4.626,221.481,177.864,174.871
0.332,26.363,4.365,4.553,221.698,177.779,174.811
0.334,26.635,4.318,4.467,221.934,177.663,174.740
0.335,26.938,4.241,4.371,222.187,177.518,174.659
0.337,27.267,4.144,4.270,222.454,177.348,174.570
0.338,27.614,4.034,4.168,222.729,177.159,174.475
0.339,27.972,3.922,4.072,223.007,176.956,174.376
0.341,28.334,3.816,3.986,223.284,176.745,174.277
0.342,28.693,3.726,3.917,223.555,176.532,174.178
0.344,29.041,3.662,3.869,223.816,176.322,174.082
0.345,29.370,3.629,3.847,224.060,176.120,173.992
0.346,29.674,3.622,3.845,224.284,175.933,173.910
0.348,29.944,3.637,3.860,224.483,175.766,173.837
0.349,30.173,3.665,3.886,224.653,175.624,173.777
0.351,30.353,3.702,3.919,224.787,175.513,173.732
0.352,30.478,3.741,3.953,224.883,175.438,173.703
0.353,30.552,3.776,3.984,224.942,175.395,173.689
0.355,30.585,3.802,4.008,224.972,175.381,173.687
0.356,30.596,3.818,4.024,224.978,175.387,173.694
0.358,30.624,3.825,4.033,224.966,175.408,173.707
0.359,30.665,3.825,4.035,224.942,175.438,173.722
0.360,30.712,3.819,4.030,224.913,175.471,173.737
0.362,30.755,3.808,4.020,224.884,175.501,173.749
0.363,30.787,3.795,4.006,224.861,175.522,173.754
0.365,30.800,3.779,3.987,224.850,175.528,173.750
0.366,30.824,3.764,3.967,224.858,175.512,173.732
0.367,30.887,3.752,3.949,224.891,175.469,173.700
0.369,30.998,3.747,3.937,224.953,175.393,173.648
0.370,31.162,3.751,3.936,225.049,175.281,173.576
0.372,31.372,3.768,3.950,225.174,175.138,173.487
0.373,31.619,3.800,3.981,225.321,174.969,173.384
0.374,31.894,3.851,4.035,225.486,174.780,173.270
0.376,32.190,3.920,4.110,225.662,174.576,173.148
0.377,32.498,4.003,4.200,225.845,174.364,173.021
0.378,32.808,4.095,4.299,226.029,174.149,172.892
0.380,33.114,4.190,4.400,226.208,173.937,172.765
0.381,33.405,4.284,4.495,226.377,173.732,172.643
0.383,33.675,4.373,4.579,226.530,173.542,172.529
0.384,33.914,4.451,4.645,226.661,173.371,172.426
0.385,34.113,4.515,4.688,226.765,173.226,172.338
0.387,34.267,4.566,4.712,226.838,173.111,172.266
0.388,34.376,4.605,4.722,226.880,173.025,172.213
0.390,34.449,4.633,4.721,226.900,172.966,172.177
0.391,34.492,4.652,4.714,226.903,172.927,172.158
0.392,34.515,4.664,4.705,226.897,172.905,172.154
0.394,34.533,4.668,4.698,226.889,172.895,172.167
0.395,34.560,4.667,4.698,226.885,172.893,172.193
0.397,34.601,4.662,4.704,226.892,172.894,172.234
0.398,34.661,4.655,4.716,226.918,172.894,172.288
0.399,34.745,4.648,4.734,226.969,172.888,172.354
0.401,34.860,4.643,4.756,227.053,172.872,172.432
0.402,35.015,4.641,4.781,227.175,172.842,172.522
0.404,35.216,4.644,4.811,227.343,172.793,172.621
0.405,35.470,4.654,4.843,227.561,172.722,172.730
0.406,35.770,4.673,4.879,227.822,172.631,172.847
0.408,36.107,4.703,4.920,228.118,172.525,172.970
0.409,36.473,4.744,4.967,228.440,172.407,173.096
0.411,36.859,4.798,5.022,228.781,172.280,173.225
0.412,37.255,4.867,5.086,229.131,172.147,173.354
0.413,37.653,4.953,5.160,229.484,172.012,173.481
0.415,38.044,5.057,5.247,229.829,171.879,173.604
0.416,38.418,5.176,5.343,230.160,171.751,173.722
0.418,38.766,5.305,5.444,230.468,171.631,173.833
0.419,39.079,5.436,5.546,230.744,171.523,173.934
0.420,39.348,5.562,5.641,230.980,171.430,174.024
0.422,39.565,5.678,5.727,231.168,171.356,174.101
0.423,39.728,5.776,5.796,231.308,171.301,174.164
0.425,39.842,5.850,5.845,231.403,171.263,174.216
0.426,39.914,5.897,5.870,231.459,171.240,174.255
0.427,39.952,5.919,5.877,231.480,171.231,174.285
0.429,39.974,5.921,5.871,231.473,171.233,174.305
0.430,40.008,5.907,5.856,231.443,171.243,174.317
0.432,40.061,5.882,5.838,231.393,171.261,174.321
0.433,40.128,5.848,5.821,231.330,171.284,174.319
0.434,40.204,5.811,5.812,231.259,171.309,174.312
0.436,40.284,5.774,5.812,231.184,171.335,174.301
0.437,40.363,5.739,5.823,231.111,171.360,174.287
0.439,40.434,5.706,5.839,231.045,171.382,174.270
0.440,40.494,5.677,5.860,230.990,171.399,174.252
0.441,40.542,5.653,5.882,230.946,171.411,174.235
0.443,40.579,5.635,5.903,230.914,171.419,174.220
0.444,40.605,5.624,5.920,230.891,171.424,174.210
0.446,40.619,5.621,5.931,230.878,171.426,174.205
0.447,40.624,5.624,5.935,230.874,171.427,174.208
0.448,40.637,5.632,5.933,230.877,171.427,174.220
0.450,40.663,5.642,5.925,230.887,171.427,174.244
0.451,40.704,5.651,5.911,230.904,171.427,174.281
0.453,40.761,5.658,5.892,230.927,171.429,174.333
0.454,40.835,5.661,5.869,230.954,171.433,174.402
0.455,40.928,5.656,5.841,230.986,171.440,174.489
0.457,41.041,5.644,5.809,231.022,171.450,174.596
0.458,41.174,5.627,5.776,231.059,171.465,174.723
0.459,41.323,5.606,5.741,231.098,171.483,174.866
0.461,41.485,5.582,5.706,231.137,171.503,175.021
0.462,41.654,5.558,5.673,231.174,171.526,175.184
0.464,41.827,5.535,5.641,231.209,171.550,175.352
0.465,42.000,5.514,5.613,231.239,171.576,175.521
0.466,42.170,5.496,5.590,231.263,171.602,175.687
0.468,42.332,5.481,5.570,231.281,171.628,175.846
0.469,42.483,5.469,5.554,231.290,171.653,175.995
0.471,42.619,5.457,5.542,231.289,171.677,176.129
0.472,42.738,5.447,5.533,231.277,171.700,176.245
0.473,42.837,5.436,5.527,231.253,171.720,176.339
0.475,42.918,5.424,5.524,231.215,171.737,176.408
0.476,42.985,5.412,5.524,231.168,171.752,176.453
0.478,43.045,5.399,5.525,231.115,171.764,176.479
0.479,43.101,5.386,5.526,231.061,171.773,176.489
0.480,43.152,5.374,5.527,231.011,171.779,176.486
0.482,43.195,5.364,5.527,230.969,171.784,176.475
0.483,43.228,5.356,5.524,230.941,171.786,176.458
0.485,43.249,5.350,5.517,230.930,171.785,176.440
0.486,43.269,5.348,5.506,230.943,171.783,176.424
0.487,43.310,5.349,5.491,230.982,171.779,176.413
0.489,43.382,5.351,5.471,231.053,171.773,176.412
0.490,43.490,5.353,5.447,231.161,171.765,176.423
0.492,43.642,5.353,5.419,231.310,171.755,176.451
0.493,43.839,5.350,5.388,231.501,171.745,176.497
0.494,44.075,5.343,5.353,231.729,171.733,176.559
0.496,44.344,5.330,5.315,231.986,171.722,176.635
0.497,44.639,5.311,5.274,232.268,171.712,176.721
0.499,44.953,5.286,5.234,232.567,171.703,176.816
0.500,45.280,5.256,5.196,232.878,171.698,176.917
0.501,45.612,5.221,5.162,233.194,171.695,177.021
0.503,45.944,5.181,5.134,233.508,171.696,177.127
0.504,46.268,5.136,5.113,233.815,171.702,177.231
0.506,46.578,5.086,5.103,234.108,171.714,177.332
0.507,46.868,5.034,5.102,234.381,171.732,177.426
0.508,47.130,4.981,5.109,234.628,171.758,177.512
0.510,47.360,4.930,5.119,234.843,171.791,177.586
0.511,47.557,4.884,5.131,235.025,171.831,177.650
0.513,47.726,4.845,5.140,235.179,171.877,177.704
0.514,47.872,4.817,5.145,235.307,171.928,177.750
0.515,47.998,4.802,5.141,235.414,171.983,177.789
0.517,48.108,4.801,5.128,235.501,172.039,177.822
0.518,48.205,4.810,5.107,235.574,172.097,177.852
0.520,48.293,4.828,5.081,235.634,172.155,177.879
0.521,48.373,4.849,5.053,235.686,172.211,177.904
0.522,48.449,4.871,5.026,235.733,172.264,177.930
0.524,48.521,4.890,5.001,235.778,172.314,177.957
0.525,48.591,4.902,4.981,235.824,172.358,177.987
0.527,48.663,4.904,4.969,235.875,172.396,178.021
0.528,48.739,4.899,4.964,235.933,172.427,178.060
0.529,48.819,4.888,4.964,235.995,172.451,178.102
0.531,48.900,4.873,4.967,236.060,172.470,178.148
0.532,48.981,4.857,4.973,236.124,172.485,178.195
0.534,49.060,4.843,4.978,236.185,172.495,178.243
0.535,49.133,4.833,4.982,236.242,172.503,178.290
0.536,49.200,4.828,4.984,236.290,172.509,178.335
0.538,49.257,4.829,4.981,236.328,172.514,178.377
0.539,49.302,4.833,4.973,236.354,172.519,178.415
0.541,49.337,4.837,4.959,236.364,172.524,178.447
0.542,49.365,4.840,4.939,236.356,172.531,178.473
0.543,49.400,4.838,4.911,236.328,172.541,178.491
0.545,49.453,4.829,4.874,236.277,172.554,178.501
0.546,49.524,4.810,4.828,236.208,172.570,178.502
0.547,49.608,4.783,4.775,236.126,172.587,178.497
0.549,49.696,4.748,4.719,236.041,172.605,178.488
0.550,49.780,4.708,4.664,235.959,172.622,178.476
0.552,49.854,4.667,4.617,235.887,172.636,178.463
0.553,49.909,4.626,4.581,235.835,172.646,178.452
0.554,49.937,4.587,4.562,235.808,172.651,178.444
0.556,49.945,4.554,4.564,235.816,172.650,178.440
0.557,49.995,4.527,4.588,235.864,172.640,178.444
0.559,50.095,4.504,4.628,235.962,172.621,178.457
0.560,50.253,4.480,4.675,236.116,172.591,178.480
0.561,50.478,4.453,4.723,236.333,172.548,178.516
0.563,50.773,4.421,4.763,236.619,172.493,178.565
0.564,51.130,4.379,4.788,236.964,172.427,178.627
0.566,51.535,4.324,4.790,237.356,172.352,178.698
0.567,51.977,4.255,4.764,237.784,172.269,178.776
0.568,52.444,4.176,4.715,238.234,172.183,178.859
0.570,52.922,4.093,4.653,238.696,172.094,178.943
