"T","Distance","Radius","FreeRadius","X","Y","Z"
0.000,0.000,1.878,1.878,210.753,199.180,186.103
0.001,0.460,2.044,2.044,210.650,198.734,186.145
0.003,0.915,2.208,2.208,210.548,198.292,186.188
0.004,1.362,2.366,2.366,210.450,197.858,186.233
0.005,1.796,2.517,2.517,210.356,197.437,186.282
0.007,2.213,2.658,2.658,210.268,197.033,186.336
0.008,2.609,2.787,2.787,210.188,196.649,186.396
0.009,2.981,2.900,2.900,210.117,196.291,186.463
0.011,3.324,2.996,2.996,210.058,195.961,186.539
0.012,3.636,3.075,3.075,210.010,195.665,186.625
0.014,3.915,3.140,3.140,209.976,195.407,186.722
0.015,4.158,3.193,3.193,209.958,195.190,186.831
0.016,4.369,3.238,3.238,209.957,195.018,186.954
0.018,4.555,3.277,3.277,209.972,194.892,187.089
0.019,4.726,3.313,3.313,210.002,194.806,187.235
0.020,4.892,3.349,3.349,210.044,194.754,187.386
0.022,5.057,3.387,3.387,210.095,194.732,187.542
0.023,5.225,3.426,3.426,210.155,194.734,187.698
0.024,5.393,3.465,3.465,210.219,194.755,187.852
0.026,5.560,3.501,3.501,210.287,194.789,188.001
0.027,5.722,3.534,3.534,210.355,194.831,188.142
0.028,5.874,3.561,3.561,210.422,194.875,188.271
0.030,6.011,3.581,3.581,210.485,194.916,188.386
0.031,6.129,3.592,3.592,210.541,194.950,188.484
0.033,6.224,3.596,3.596,210.590,194.971,188.562
0.034,6.297,3.594,3.594,210.631,194.979,188.622
0.035,6.353,3.589,3.589,210.665,194.977,188.667
0.037,6.397,3.581,3.581,210.694,194.967,188.699
0.038,6.433,3.574,3.574,210.717,194.950,188.720
0.039,6.465,3.569,3.569,210.736,194.928,188.733
0.041,6.496,3.568,3.568,210.752,194.903,188.741
0.042,6.526,3.573,3.573,210.766,194.876,188.746
0.043,6.555,3.582,3.582,210.778,194.850,188.751
0.045,6.582,3.594,3.594,210.790,194.827,188.758
0.046,6.608,3.608,3.608,210.802,194.807,188.770
0.047,6.635,3.621,3.621,210.815,194.793,188.789
0.049,6.668,3.632,3.632,210.830,194.786,188.816
0.050,6.707,3.641,3.641,210.849,194.783,188.851
0.051,6.753,3.645,3.645,210.871,194.783,188.891
0.053,6.805,3.645,3.645,210.898,194.785,188.936
0.054,6.864,3.642,3.642,210.931,194.786,188.985
0.056,6.928,3.636,3.636,210.970,194.785,189.035
0.057,6.998,3.629,3.629,211.017,194.780,189.087
0.058,7.074,3.621,3.621,211.072,194.769,189.138
0.060,7.157,3.614,3.614,211.136,194.752,189.188
0.061,7.248,3.608,3.608,211.210,194.725,189.235
0.062,7.350,3.604,3.604,211.294,194.689,189.279
0.064,7.465,3.603,3.603,211.391,194.640,189.317
0.065,7.591,3.607,3.607,211.497,194.580,189.350
0.066,7.727,3.615,3.615,211.611,194.512,189.379
0.068,7.871,3.630,3.630,211.730,194.435,189.402
0.069,8.019,3.651,3.651,211.853,194.354,189.421
0.070,8.171,3.681,3.681,211.977,194.268,189.435
0.072,8.323,3.719,3.719,212.100,194.180,189.445
0.073,8.472,3.764,3.764,212.220,194.092,189.451
0.075,8.616,3.814,3.814,212.335,194.005,189.452
0.076,8.752,3.867,3.867,212.442,193.921,189.450
0.077,8.877,3.920,3.920,212.540,193.842,189.444
0.079,8.990,3.972,3.972,212.625,193.769,189.435
0.080,9.089,4.019,4.019,212.698,193.704,189.422
0.081,9.175,4.061,4.061,212.760,193.646,189.407
0.083,9.249,4.095,4.095,212.811,193.595,189.390
0.084,9.313,4.123,4.123,212.854,193.550,189.373
0.085,9.368,4.145,4.145,212.889,193.512,189.355
0.087,9.415,4.163,4.163,212.919,193.480,189.339
0.088,9.454,4.176,4.176,212.943,193.454,189.324
0.089,9.487,4.186,4.186,212.965,193.432,189.311
0.091,9.514,4.193,4.193,212.985,193.416,189.301
0.092,9.537,4.198,4.198,213.004,193.405,189.295
0.093,9.558,4.202,4.202,213.024,193.398,189.294
0.095,9.581,4.204,4.204,213.046,193.395,189.298
0.096,9.606,4.204,4.204,213.070,193.395,189.308
0.098,9.635,4.204,4.204,213.095,193.397,189.321
0.099,9.665,4.201,4.201,213.120,193.402,189.336
0.100,9.696,4.198,4.198,213.145,193.408,189.354
0.102,9.727,4.193,4.193,213.169,193.413,189.373
0.103,9.757,4.187,4.187,213.192,193.418,189.391
0.104,9.783,4.181,4.181,213.211,193.422,189.409
0.106,9.806,4.175,4.175,213.228,193.423,189.424
0.107,9.823,4.169,4.169,213.240,193.422,189.436
0.108,9.836,4.163,4.163,213.248,193.417,189.445
0.110,9.847,4.159,4.159,213.250,193.407,189.448
0.111,9.861,4.156,4.156,213.248,193.393,189.446
0.112,9.879,4.154,4.154,213.244,193.376,189.441
0.114,9.898,4.153,4.153,213.243,193.359,189.433
0.115,9.916,4.151,4.151,213.249,193.344,189.425
0.117,9.937,4.147,4.147,213.264,193.332,189.417
0.118,9.967,4.139,4.139,213.293,193.326,189.412
0.119,10.014,4.126,4.126,213.340,193.329,189.411
0.121,10.083,4.107,4.107,213.408,193.342,189.416
0.122,10.180,4.080,4.080,213.501,193.366,189.428
0.123,10.310,4.047,4.047,213.623,193.405,189.448
0.125,10.477,4.012,4.012,213.778,193.461,189.479
0.126,10.686,3.979,3.979,213.969,193.534,189.521
0.127,10.932,3.952,3.952,214.192,193.624,189.574
0.129,11.210,3.934,3.934,214.443,193.726,189.636
0.130,11.512,3.931,3.931,214.715,193.837,189.706
0.131,11.831,3.946,3.946,215.002,193.952,189.782
0.133,12.159,3.981,3.981,215.299,194.069,189.863
0.134,12.492,4.032,4.032,215.599,194.183,189.946
0.136,12.820,4.095,4.095,215.898,194.291,190.030
0.137,13.138,4.166,4.166,216.188,194.388,190.114
0.138,13.438,4.239,4.239,216.465,194.472,190.196
0.140,13.715,4.310,4.310,216.722,194.538,190.274
0.141,13.962,4.374,4.374,216.954,194.583,190.347
0.142,14.176,4.426,4.426,217.157,194.604,190.413
0.144,14.362,4.467,4.467,217.333,194.605,190.474
0.145,14.524,4.496,4.496,217.484,194.588,190.528
0.146,14.666,4.516,4.516,217.613,194.556,190.577
0.148,14.792,4.528,4.528,217.723,194.513,190.621
0.149,14.905,4.534,4.534,217.816,194.462,190.659
0.150,15.008,4.534,4.534,217.895,194.404,190.694
0.152,15.102,4.531,4.531,217.961,194.345,190.724
0.153,15.189,4.525,4.525,218.018,194.285,190.751
0.154,15.267,4.519,4.519,218.069,194.230,190.774
0.156,15.337,4.512,4.512,218.114,194.181,190.794
0.157,15.399,4.506,4.506,218.158,194.141,190.811
0.159,15.452,4.503,4.503,218.200,194.111,190.826
0.160,15.499,4.504,4.504,218.240,194.090,190.839
0.161,15.541,4.509,4.509,218.279,194.077,190.849
0.163,15.579,4.520,4.520,218.315,194.071,190.858
0.164,15.614,4.536,4.536,218.349,194.071,190.866
0.165,15.646,4.555,4.555,218.380,194.076,190.872
0.167,15.675,4.576,4.576,218.407,194.085,190.877
0.168,15.703,4.595,4.595,218.432,194.098,190.881
0.169,15.728,4.612,4.612,218.452,194.112,190.885
0.171,15.751,4.624,4.624,218.469,194.127,190.888
0.172,15.771,4.630,4.630,218.482,194.143,190.891
0.173,15.789,4.628,4.628,218.490,194.157,190.894
0.175,15.803,4.622,4.622,218.495,194.171,190.897
0.176,15.815,4.611,4.611,218.497,194.182,190.900
0.178,15.824,4.599,4.599,218.497,194.191,190.903
0.179,15.830,4.588,4.588,218.497,194.197,190.905
0.180,15.833,4.578,4.578,218.497,194.198,190.907
0.182,15.836,4.572,4.572,218.498,194.195,190.909
0.183,15.845,4.571,4.571,218.501,194.188,190.910
0.184,15.860,4.575,4.575,218.507,194.174,190.910
0.186,15.882,4.583,4.583,218.517,194.154,190.909
0.187,15.912,4.592,4.592,218.531,194.127,190.907
0.188,15.952,4.602,4.602,218.551,194.093,190.904
0.190,16.002,4.611,4.611,218.577,194.051,190.901
0.191,16.062,4.618,4.618,218.610,194.001,190.899
0.192,16.131,4.621,4.621,218.651,193.945,190.899
0.194,16.212,4.619,4.619,218.701,193.881,190.903
0.195,16.303,4.615,4.615,218.759,193.811,190.912
0.196,16.406,4.609,4.609,218.827,193.735,190.927
0.198,16.521,4.603,4.603,218.905,193.653,190.949
0.199,16.650,4.597,4.597,218.994,193.566,190.980
0.201,16.794,4.594,4.594,219.095,193.473,191.021
0.202,16.952,4.595,4.595,219.208,193.374,191.074
0.203,17.128,4.600,4.600,219.334,193.271,191.139
0.205,17.320,4.611,4.611,219.473,193.164,191.217
0.206,17.526,4.627,4.627,219.622,193.054,191.307
0.207,17.742,4.649,4.649,219.779,192.942,191.404
0.209,17.963,4.677,4.677,219.939,192.831,191.508
0.210,18.186,4.711,4.711,220.101,192.721,191.615
0.211,18.406,4.751,4.751,220.261,192.614,191.722
0.213,18.619,4.797,4.797,220.415,192.511,191.828
0.214,18.822,4.849,4.849,220.561,192.415,191.929
0.215,19.009,4.903,4.903,220.697,192.326,192.024
0.217,19.176,4.958,4.958,220.818,192.247,192.108
0.218,19.321,5.011,5.011,220.921,192.178,192.181
0.220,19.437,5.060,5.060,221.005,192.121,192.239
0.221,19.526,5.101,5.101,221.068,192.076,192.282
0.222,19.590,5.133,5.133,221.113,192.041,192.312
0.224,19.633,5.153,5.153,221.143,192.016,192.330
0.225,19.659,5.164,5.164,221.160,191.999,192.340
0.226,19.671,5.166,5.166,221.165,191.988,192.341
0.228,19.679,5.163,5.163,221.162,191.983,192.336
0.229,19.691,5.155,5.155,221.153,191.982,192.327
0.230,19.709,5.146,5.146,221.140,191.983,192.315
0.232,19.728,5.137,5.137,221.126,191.985,192.303
0.233,19.745,5.129,5.129,221.113,191.987,192.291
0.234,19.758,5.125,5.125,221.104,191.987,192.282
0.236,19.765,5.123,5.123,221.099,191.985,192.278
0.237,19.770,5.123,5.123,221.100,191.981,192.277
0.238,19.778,5.125,5.125,221.104,191.974,192.279
0.240,19.790,5.128,5.128,221.112,191.967,192.285
0.241,19.805,5.132,5.132,221.122,191.958,192.292
0.243,19.822,5.137,5.137,221.134,191.949,192.301
0.244,19.841,5.143,5.143,221.147,191.940,192.311
0.245,19.859,5.148,5.148,221.160,191.932,192.322
0.247,19.877,5.153,5.153,221.171,191.924,192.332
0.248,19.892,5.158,5.158,221.182,191.918,192.342
0.249,19.904,5.161,5.161,221.189,191.914,192.350
0.251,19.913,5.164,5.164,221.194,191.913,192.357
0.252,19.918,5.165,5.165,221.195,191.914,192.362
0.253,19.922,5.165,5.165,221.194,191.916,192.365
0.255,19.926,5.163,5.163,221.192,191.919,192.367
0.256,19.930,5.161,5.161,221.189,191.922,192.367
0.257,19.934,5.158,5.158,221.185,191.923,192.367
0.259,19.936,5.156,5.156,221.183,191.923,192.367
0.260,19.940,5.154,5.155,221.183,191.919,192.366
0.262,19.947,5.155,5.155,221.185,191.912,192.365
0.263,19.959,5.158,5.157,221.190,191.901,192.365
0.264,19.979,5.163,5.163,221.200,191.884,192.365
0.266,20.006,5.170,5.170,221.215,191.861,192.367
0.267,20.043,5.180,5.179,221.235,191.831,192.369
0.268,20.087,5.190,5.189,221.261,191.795,192.373
0.270,20.139,5.201,5.201,221.292,191.754,192.378
0.271,20.196,5.213,5.212,221.326,191.708,192.385
0.272,20.259,5.224,5.224,221.363,191.658,192.393
0.274,20.326,5.235,5.235,221.403,191.606,192.402
0.275,20.395,5.245,5.246,221.445,191.551,192.413
0.276,20.466,5.254,5.256,221.488,191.496,192.426
0.278,20.538,5.264,5.266,221.531,191.440,192.441
0.279,20.610,5.273,5.276,221.574,191.385,192.458
0.280,20.681,5.283,5.286,221.615,191.331,192.476
0.282,20.749,5.294,5.295,221.655,191.280,192.496
0.283,20.814,5.305,5.305,221.694,191.231,192.518
0.285,20.878,5.318,5.314,221.730,191.185,192.542
0.286,20.941,5.330,5.323,221.765,191.139,192.567
0.287,21.002,5.340,5.332,221.798,191.095,192.594
0.289,21.063,5.348,5.340,221.830,191.051,192.621
0.290,21.123,5.353,5.347,221.861,191.008,192.649
0.291,21.184,5.352,5.352,221.891,190.963,192.678
0.293,21.246,5.346,5.356,221.920,190.917,192.708
0.294,21.309,5.332,5.358,221.949,190.870,192.737
0.295,21.373,5.314,5.359,221.977,190.820,192.766
0.297,21.440,5.292,5.360,222.006,190.767,192.796
0.298,21.509,5.270,5.360,222.034,190.712,192.824
0.299,21.580,5.249,5.361,222.063,190.653,192.851
0.301,21.652,5.232,5.364,222.091,190.591,192.876
0.302,21.725,5.222,5.368,222.119,190.527,192.898
0.304,21.800,5.220,5.375,222.147,190.460,192.915
0.305,21.874,5.227,5.384,222.175,190.392,192.927
0.306,21.949,5.242,5.396,222.202,190.322,192.933
0.308,22.025,5.262,5.408,222.229,190.251,192.932
0.309,22.102,5.287,5.421,222.255,190.179,192.923
0.310,22.181,5.313,5.434,222.280,190.107,192.904
0.312,22.263,5.340,5.446,222.305,190.034,192.876
0.313,22.349,5.365,5.455,222.328,189.962,192.836
0.314,22.440,5.388,5.463,222.351,189.889,192.787
0.316,22.536,5.407,5.468,222.373,189.814,192.731
0.317,22.634,5.423,5.471,222.394,189.738,192.672
0.318,22.735,5.438,5.473,222.415,189.657,192.614
0.320,22.838,5.450,5.474,222.436,189.572,192.562
0.321,22.941,5.462,5.475,222.456,189.481,192.518
0.322,23.046,5.472,5.477,222.477,189.384,192.486
0.324,23.155,5.482,5.479,222.497,189.277,192.470
0.325,23.272,5.492,5.482,222.518,189.162,192.475
0.327,23.403,5.503,5.487,222.540,189.036,192.503
0.328,23.553,5.513,5.494,222.562,188.899,192.559
0.329,23.727,5.523,5.504,222.585,188.749,192.645
0.331,23.925,5.534,5.518,222.608,188.589,192.758
0.332,24.143,5.545,5.535,222.633,188.421,192.894
0.333,24.375,5.556,5.556,222.658,188.249,193.048
0.335,24.616,5.567,5.582,222.684,188.075,193.214
0.336,24.862,5.578,5.609,222.711,187.903,193.388
0.337,25.106,5.587,5.635,222.738,187.736,193.564
0.339,25.344,5.592,5.657,222.766,187.576,193.737
0.340,25.569,5.593,5.673,222.795,187.427,193.902
0.341,25.775,5.588,5.678,222.824,187.291,194.055
0.343,25.958,5.576,5.671,222.854,187.171,194.190
0.344,26.111,5.556,5.648,222.885,187.071,194.302
0.346,26.232,5.528,5.610,222.916,186.992,194.388
0.347,26.326,5.496,5.563,222.947,186.931,194.453
0.348,26.395,5.460,5.510,222.978,186.888,194.497
0.350,26.445,5.425,5.458,223.009,186.859,194.523
0.351,26.481,5.393,5.409,223.039,186.843,194.535
0.352,26.510,5.365,5.370,223.068,186.838,194.535
0.354,26.539,5.345,5.344,223.095,186.842,194.527
0.355,26.571,5.333,5.336,223.121,186.852,194.511
0.356,26.605,5.330,5.341,223.145,186.868,194.492
0.358,26.640,5.331,5.356,223.166,186.886,194.472
0.359,26.672,5.337,5.377,223.184,186.905,194.454
0.360,26.699,5.344,5.400,223.200,186.923,194.440
0.362,26.722,5.351,5.422,223.214,186.938,194.431
0.363,26.742,5.356,5.438,223.228,186.950,194.426
0.364,26.760,5.357,5.444,223.246,186.958,194.427
0.366,26.783,5.352,5.439,223.267,186.961,194.431
0.367,26.813,5.341,5.423,223.296,186.959,194.440
0.369,26.853,5.322,5.396,223.333,186.949,194.454
0.370,26.907,5.294,5.358,223.380,186.931,194.471
0.371,26.975,5.256,5.310,223.440,186.905,194.492
0.373,27.062,5.208,5.250,223.515,186.870,194.516
0.374,27.168,5.148,5.179,223.607,186.824,194.544
0.375,27.297,5.075,5.098,223.718,186.767,194.576
0.377,27.448,4.992,5.008,223.848,186.699,194.610
0.378,27.622,4.899,4.910,223.999,186.619,194.647
0.379,27.819,4.798,4.805,224.169,186.530,194.687
0.381,28.036,4.690,4.694,224.359,186.432,194.729
0.382,28.274,4.578,4.580,224.567,186.327,194.774
0.383,28.532,4.462,4.462,224.795,186.214,194.820
0.385,28.810,4.344,4.344,225.041,186.096,194.867
0.386,29.105,4.228,4.227,225.306,185.972,194.916
0.388,29.419,4.119,4.118,225.588,185.845,194.966
0.389,29.750,4.020,4.019,225.888,185.715,195.017
0.390,30.098,3.937,3.937,226.206,185.582,195.068
0.392,30.462,3.875,3.874,226.540,185.449,195.120
0.393,30.838,3.837,3.837,226.888,185.315,195.171
0.394,31.220,3.828,3.828,227.243,185.183,195.221
0.396,31.604,3.850,3.850,227.601,185.054,195.270
0.397,31.982,3.897,3.897,227.955,184.929,195.317
0.398,32.351,3.962,3.963,228.300,184.809,195.362
0.400,32.703,4.040,4.041,228.632,184.695,195.404
0.401,33.035,4.125,4.125,228.943,184.589,195.442
0.402,33.339,4.210,4.210,229.230,184.493,195.476
0.404,33.610,4.288,4.288,229.486,184.407,195.505
0.405,33.843,4.356,4.356,229.705,184.332,195.529
0.407,34.033,4.410,4.410,229.884,184.271,195.546
0.408,34.176,4.454,4.454,230.018,184.223,195.558
0.409,34.276,4.487,4.487,230.112,184.187,195.565
0.411,34.341,4.511,4.511,230.171,184.161,195.567
0.412,34.374,4.527,4.527,230.199,184.144,195.565
0.413,34.386,4.535,4.535,230.203,184.134,195.561
0.415,34.405,4.537,4.537,230.187,184.128,195.554
0.416,34.437,4.534,4.534,230.156,184.126,195.547
0.417,34.479,4.526,4.526,230.115,184.126,195.539
0.419,34.526,4.516,4.515,230.068,184.125,195.532
0.420,34.572,4.503,4.502,230.022,184.122,195.526
0.421,34.614,4.489,4.488,229.981,184.115,195.522
0.423,34.648,4.474,4.474,229.950,184.104,195.522
0.424,34.675,4.460,4.460,229.930,184.085,195.524
0.425,34.702,4.448,4.449,229.923,184.059,195.530
0.427,34.738,4.438,4.440,229.928,184.025,195.539
0.428,34.787,4.432,4.434,229.946,183.981,195.550
0.430,34.851,4.430,4.432,229.978,183.927,195.565
0.431,34.932,4.433,4.436,230.023,183.862,195.582
0.432,35.031,4.442,4.445,230.082,183.785,195.601
0.434,35.150,4.459,4.460,230.156,183.695,195.623
0.435,35.288,4.484,4.482,230.244,183.591,195.646
0.436,35.447,4.516,4.512,230.346,183.472,195.672
0.438,35.628,4.556,4.549,230.465,183.338,195.700
0.439,35.830,4.602,4.593,230.597,183.189,195.730
0.440,36.049,4.654,4.644,230.742,183.027,195.760
0.442,36.281,4.711,4.701,230.895,182.856,195.792
0.443,36.520,4.772,4.765,231.054,182.680,195.823
0.444,36.760,4.835,4.835,231.214,182.503,195.854
0.446,36.999,4.901,4.911,231.373,182.328,195.884
0.447,37.229,4.967,4.990,231.528,182.159,195.913
0.449,37.447,5.032,5.070,231.674,182.000,195.939
0.450,37.648,5.092,5.148,231.809,181.854,195.963
0.451,37.826,5.146,5.221,231.930,181.725,195.984
0.453,37.976,5.193,5.287,232.032,181.616,196.002
0.454,38.095,5.229,5.343,232.114,181.531,196.015
0.455,38.182,5.254,5.387,232.175,181.469,196.025
0.457,38.241,5.267,5.417,232.217,181.429,196.031
0.458,38.277,5.271,5.436,232.243,181.405,196.035
0.459,38.293,5.268,5.445,232.256,181.396,196.038
0.461,38.296,5.260,5.445,232.257,181.397,196.040
0.462,38.308,5.251,5.438,232.251,181.406,196.043
0.463,38.327,5.242,5.425,232.238,181.420,196.046
0.465,38.350,5.235,5.407,232.221,181.435,196.052
0.466,38.373,5.234,5.387,232.204,181.449,196.060
0.467,38.395,5.237,5.365,232.187,181.457,196.072
0.469,38.415,5.243,5.344,232.175,181.457,196.088
0.470,38.439,5.253,5.325,232.169,181.447,196.109
0.472,38.473,5.265,5.310,232.170,181.426,196.135
0.473,38.516,5.278,5.300,232.179,181.396,196.165
0.474,38.570,5.293,5.298,232.196,181.358,196.200
0.476,38.636,5.309,5.304,232.222,181.313,196.240
0.477,38.712,5.324,5.318,232.257,181.262,196.283
0.478,38.798,5.341,5.340,232.303,181.206,196.331
0.480,38.895,5.358,5.368,232.360,181.146,196.381
0.481,39.003,5.376,5.401,232.428,181.082,196.436
0.482,39.122,5.395,5.438,232.509,181.017,196.493
0.484,39.252,5.416,5.478,232.602,180.950,196.554
0.485,39.393,5.439,5.520,232.709,180.883,196.617
0.486,39.544,5.463,5.562,232.828,180.817,196.682
0.488,39.702,5.489,5.603,232.956,180.753,196.749
0.489,39.863,5.515,5.644,233.089,180.691,196.816
0.491,40.025,5.543,5.682,233.225,180.632,196.882
0.492,40.184,5.570,5.718,233.359,180.576,196.946
0.493,40.336,5.598,5.750,233.488,180.525,197.008
0.495,40.478,5.626,5.778,233.610,180.480,197.067
0.496,40.607,5.653,5.800,233.720,180.440,197.120
0.497,40.719,5.679,5.817,233.815,180.407,197.169
0.499,40.811,5.703,5.831,233.893,180.381,197.211
0.500,40.879,5.726,5.841,233.949,180.364,197.245
0.501,40.922,5.746,5.849,233.982,180.355,197.272
0.503,40.945,5.763,5.856,233.995,180.353,197.291
0.504,40.958,5.776,5.862,233.992,180.357,197.303
0.505,40.974,5.786,5.869,233.980,180.364,197.309
0.507,40.994,5.792,5.876,233.962,180.374,197.311
0.508,41.016,5.794,5.883,233.944,180.385,197.308
0.509,41.033,5.793,5.891,233.931,180.394,197.302
0.511,41.045,5.789,5.897,233.926,180.401,197.293
0.512,41.059,5.783,5.902,233.936,180.403,197.283
0.514,41.090,5.775,5.905,233.964,180.399,197.272
0.515,41.145,5.765,5.906,234.017,180.388,197.260
0.516,41.229,5.754,5.904,234.097,180.367,197.250
0.518,41.343,5.742,5.899,234.207,180.336,197.240
0.519,41.483,5.731,5.893,234.341,180.298,197.232
0.520,41.643,5.721,5.888,234.494,180.252,197.224
0.522,41.819,5.712,5.883,234.663,180.202,197.218
0.523,42.006,5.706,5.880,234.842,180.148,197.212
0.524,42.200,5.703,5.881,235.027,180.093,197.207
0.526,42.394,5.704,5.886,235.213,180.036,197.202
0.527,42.585,5.710,5.896,235.396,179.981,197.198
0.528,42.768,5.718,5.909,235.571,179.928,197.195
0.530,42.937,5.729,5.924,235.732,179.879,197.191
0.531,43.087,5.742,5.942,235.877,179.836,197.188
0.533,43.216,5.756,5.959,236.000,179.799,197.185
0.534,43.324,5.770,5.977,236.103,179.769,197.182
0.535,43.414,5.784,5.992,236.190,179.744,197.181
0.537,43.489,5.796,6.005,236.262,179.724,197.180
0.538,43.551,5.808,6.016,236.322,179.707,197.180
0.539,43.605,5.818,6.024,236.374,179.694,197.183
0.541,43.652,5.828,6.031,236.419,179.682,197.187
0.542,43.696,5.837,6.036,236.461,179.672,197.194
0.543,43.739,5.846,6.040,236.503,179.662,197.203
0.545,43.785,5.855,6.043,236.546,179.652,197.216
0.546,43.837,5.864,6.045,236.594,179.640,197.232
0.547,43.898,5.873,6.047,236.650,179.627,197.251
0.549,43.968,5.883,6.049,236.714,179.611,197.274
0.550,44.046,5.893,6.051,236.785,179.593,197.301
0.551,44.131,5.904,6.053,236.863,179.574,197.329
