"T","Distance","Radius","FreeRadius","X","Y","Z"
0.000,0.000,1.560,1.560,232.046,220.127,245.567
0.002,0.457,1.790,1.790,232.501,220.154,245.540
0.003,0.909,2.018,2.018,232.952,220.179,245.513
0.005,1.352,2.242,2.242,233.393,220.204,245.488
0.006,1.780,2.459,2.459,233.820,220.228,245.463
0.008,2.188,2.668,2.668,234.227,220.250,245.440
0.010,2.572,2.865,2.865,234.610,220.269,245.420
0.011,2.927,3.050,3.050,234.964,220.285,245.401
0.013,3.248,3.220,3.220,235.285,220.298,245.386
0.015,3.531,3.372,3.372,235.567,220.307,245.374
0.016,3.769,3.505,3.505,235.805,220.311,245.366
0.018,3.960,3.616,3.616,235.995,220.311,245.362
0.019,4.100,3.703,3.703,236.135,220.306,245.362
0.021,4.194,3.763,3.763,236.229,220.297,245.365
0.023,4.249,3.799,3.799,236.283,220.286,245.371
0.024,4.274,3.815,3.815,236.303,220.274,245.379
0.026,4.290,3.817,3.817,236.294,220.263,245.387
0.027,4.324,3.810,3.810,236.262,220.254,245.394
0.029,4.373,3.799,3.799,236.214,220.249,245.401
0.031,4.433,3.790,3.790,236.154,220.248,245.405
0.032,4.498,3.786,3.786,236.089,220.255,245.405
0.034,4.565,3.787,3.787,236.024,220.269,245.402
0.036,4.629,3.791,3.791,235.965,220.292,245.393
0.037,4.689,3.799,3.799,235.916,220.325,245.380
0.039,4.745,3.808,3.808,235.877,220.362,245.363
0.040,4.794,3.819,3.819,235.850,220.399,245.346
0.042,4.834,3.831,3.831,235.832,220.431,245.329
0.044,4.861,3.842,3.842,235.826,220.454,245.317
0.045,4.873,3.851,3.851,235.831,220.463,245.311
0.047,4.892,3.858,3.858,235.848,220.454,245.312
0.048,4.937,3.861,3.861,235.876,220.421,245.324
0.050,5.013,3.859,3.859,235.915,220.361,245.348
0.052,5.126,3.852,3.852,235.967,220.268,245.387
0.053,5.280,3.841,3.841,236.030,220.139,245.443
0.055,5.476,3.829,3.829,236.105,219.973,245.516
0.057,5.705,3.822,3.822,236.188,219.779,245.604
0.058,5.961,3.822,3.822,236.279,219.562,245.705
0.060,6.234,3.833,3.833,236.375,219.332,245.816
0.061,6.518,3.858,3.858,236.475,219.094,245.936
0.063,6.805,3.898,3.898,236.575,218.857,246.063
0.065,7.087,3.949,3.949,236.674,218.628,246.193
0.066,7.356,4.007,4.007,236.769,218.414,246.325
0.068,7.605,4.069,4.069,236.860,218.223,246.457
0.069,7.828,4.131,4.131,236.943,218.062,246.586
0.071,8.018,4.190,4.190,237.018,217.937,246.710
0.073,8.179,4.242,4.242,237.083,217.851,246.829
0.074,8.316,4.289,4.289,237.140,217.797,246.941
0.076,8.436,4.330,4.330,237.192,217.771,247.046
0.078,8.546,4.366,4.366,237.241,217.766,247.145
0.079,8.650,4.397,4.397,237.288,217.779,247.236
0.081,8.749,4.424,4.424,237.334,217.803,247.320
0.082,8.845,4.446,4.446,237.383,217.835,247.396
0.084,8.936,4.465,4.465,237.435,217.867,247.464
0.086,9.024,4.481,4.481,237.493,217.896,247.524
0.087,9.110,4.493,4.493,237.559,217.915,247.575
0.089,9.195,4.502,4.502,237.634,217.921,247.617
0.090,9.285,4.509,4.509,237.717,217.913,247.650
0.092,9.381,4.513,4.513,237.806,217.892,247.677
0.094,9.482,4.515,4.515,237.900,217.860,247.698
0.095,9.588,4.513,4.513,237.996,217.819,247.715
0.097,9.696,4.509,4.509,238.092,217.772,247.729
0.099,9.805,4.501,4.501,238.187,217.719,247.740
0.100,9.912,4.489,4.489,238.277,217.663,247.752
0.102,10.015,4.473,4.473,238.362,217.606,247.764
0.103,10.112,4.454,4.454,238.439,217.549,247.779
0.105,10.201,4.433,4.433,238.506,217.494,247.797
0.107,10.279,4.412,4.412,238.562,217.444,247.819
0.108,10.349,4.393,4.393,238.606,217.397,247.846
0.110,10.413,4.379,4.379,238.641,217.353,247.877
0.111,10.472,4.370,4.370,238.667,217.312,247.912
0.113,10.530,4.368,4.368,238.687,217.273,247.949
0.115,10.586,4.371,4.371,238.701,217.235,247.988
0.116,10.643,4.378,4.378,238.711,217.197,248.029
0.118,10.700,4.387,4.387,238.719,217.160,248.071
0.120,10.758,4.396,4.396,238.725,217.121,248.114
0.121,10.817,4.405,4.405,238.732,217.080,248.157
0.123,10.878,4.411,4.411,238.741,217.038,248.199
0.124,10.941,4.415,4.415,238.752,216.992,248.240
0.126,11.005,4.417,4.417,238.767,216.944,248.281
0.128,11.071,4.418,4.418,238.784,216.894,248.320
0.129,11.138,4.417,4.417,238.804,216.843,248.358
0.131,11.206,4.416,4.416,238.826,216.791,248.395
0.132,11.274,4.413,4.413,238.851,216.738,248.432
0.134,11.343,4.410,4.410,238.878,216.686,248.468
0.136,11.412,4.406,4.406,238.906,216.634,248.503
0.137,11.480,4.400,4.400,238.937,216.584,248.538
0.139,11.547,4.393,4.393,238.968,216.536,248.573
0.141,11.613,4.383,4.383,239.002,216.490,248.607
0.142,11.678,4.371,4.371,239.036,216.447,248.640
0.144,11.742,4.356,4.356,239.073,216.407,248.673
0.145,11.805,4.340,4.340,239.114,216.369,248.704
0.147,11.870,4.323,4.323,239.159,216.333,248.734
0.149,11.937,4.307,4.307,239.209,216.300,248.762
0.150,12.007,4.291,4.291,239.267,216.269,248.788
0.152,12.082,4.276,4.276,239.331,216.239,248.811
0.153,12.163,4.264,4.264,239.405,216.212,248.831
0.155,12.251,4.252,4.252,239.488,216.185,248.847
0.157,12.350,4.240,4.240,239.582,216.160,248.860
0.158,12.458,4.227,4.227,239.688,216.136,248.868
0.160,12.579,4.212,4.212,239.806,216.113,248.873
0.162,12.712,4.193,4.193,239.937,216.089,248.876
0.163,12.857,4.170,4.170,240.080,216.062,248.881
0.165,13.015,4.146,4.146,240.234,216.032,248.890
0.166,13.186,4.124,4.124,240.400,215.996,248.906
0.168,13.370,4.107,4.107,240.578,215.954,248.932
0.170,13.569,4.100,4.100,240.766,215.904,248.970
0.171,13.783,4.106,4.106,240.966,215.844,249.023
0.173,14.016,4.128,4.128,241.176,215.774,249.093
0.174,14.268,4.166,4.166,241.396,215.691,249.184
0.176,14.543,4.220,4.220,241.626,215.594,249.298
0.178,14.838,4.286,4.286,241.864,215.483,249.434
0.179,15.150,4.364,4.364,242.107,215.363,249.588
0.181,15.470,4.452,4.452,242.349,215.236,249.755
0.183,15.793,4.549,4.549,242.586,215.105,249.930
0.184,16.111,4.652,4.652,242.815,214.974,250.108
0.186,16.418,4.756,4.756,243.030,214.846,250.285
0.187,16.706,4.855,4.855,243.228,214.724,250.455
0.189,16.969,4.946,4.946,243.405,214.612,250.614
0.191,17.199,5.022,5.022,243.556,214.512,250.757
0.192,17.389,5.081,5.081,243.677,214.429,250.878
0.194,17.534,5.118,5.118,243.764,214.365,250.974
0.195,17.633,5.137,5.137,243.818,214.321,251.043
0.197,17.693,5.143,5.143,243.846,214.293,251.090
0.199,17.723,5.140,5.140,243.853,214.280,251.115
0.200,17.734,5.131,5.131,243.846,214.278,251.124
0.202,17.752,5.122,5.122,243.831,214.286,251.119
0.204,17.779,5.115,5.115,243.814,214.300,251.103
0.205,17.812,5.112,5.112,243.802,214.319,251.079
0.207,17.847,5.115,5.115,243.801,214.339,251.050
0.208,17.886,5.123,5.123,243.817,214.359,251.020
0.210,17.937,5.138,5.138,243.855,214.374,250.992
0.212,18.009,5.161,5.161,243.923,214.384,250.968
0.213,18.106,5.192,5.192,244.019,214.387,250.951
0.215,18.225,5.231,5.231,244.137,214.383,250.942
0.216,18.361,5.277,5.277,244.273,214.372,250.944
0.218,18.510,5.329,5.329,244.420,214.355,250.957
0.220,18.668,5.386,5.386,244.574,214.331,250.984
0.221,18.832,5.447,5.447,244.730,214.301,251.025
0.223,18.999,5.511,5.511,244.882,214.265,251.084
0.225,19.166,5.577,5.577,245.024,214.222,251.161
0.226,19.335,5.645,5.645,245.152,214.172,251.258
0.228,19.505,5.714,5.714,245.261,214.117,251.377
0.229,19.681,5.785,5.785,245.345,214.056,251.518
0.231,19.865,5.855,5.855,245.406,213.990,251.680
0.233,20.059,5.926,5.926,245.447,213.920,251.856
0.234,20.260,5.997,5.997,245.470,213.849,252.043
0.236,20.465,6.066,6.066,245.479,213.778,252.234
0.237,20.670,6.133,6.133,245.476,213.707,252.427
0.239,20.871,6.197,6.197,245.465,213.639,252.615
0.241,21.062,6.257,6.257,245.449,213.575,252.795
0.242,21.239,6.312,6.312,245.431,213.517,252.961
0.244,21.396,6.362,6.362,245.413,213.466,253.108
0.246,21.527,6.406,6.406,245.398,213.423,253.232
0.247,21.630,6.445,6.445,245.390,213.390,253.329
0.249,21.706,6.480,6.480,245.388,213.367,253.401
0.250,21.758,6.511,6.511,245.391,213.351,253.450
0.252,21.790,6.538,6.538,245.397,213.342,253.480
0.254,21.807,6.562,6.562,245.407,213.340,253.494
0.255,21.819,6.583,6.584,245.419,213.342,253.495
0.257,21.837,6.601,6.601,245.432,213.349,253.485
0.258,21.861,6.615,6.615,245.445,213.359,253.468
0.260,21.888,6.625,6.625,245.458,213.371,253.446
0.262,21.917,6.631,6.631,245.469,213.383,253.424
0.263,21.943,6.632,6.632,245.477,213.396,253.402
0.265,21.964,6.629,6.629,245.482,213.408,253.385
0.267,21.981,6.623,6.623,245.484,213.419,253.372
0.268,21.993,6.615,6.615,245.485,213.428,253.364
0.270,22.001,6.607,6.607,245.484,213.434,253.359
0.271,22.004,6.599,6.599,245.482,213.436,253.359
0.273,22.008,6.592,6.592,245.481,213.435,253.363
0.275,22.018,6.588,6.588,245.480,213.430,253.370
0.276,22.033,6.585,6.585,245.480,213.420,253.382
0.278,22.055,6.583,6.583,245.482,213.404,253.398
0.279,22.085,6.581,6.581,245.487,213.383,253.417
0.281,22.122,6.578,6.578,245.496,213.355,253.440
0.283,22.168,6.573,6.573,245.508,213.320,253.467
0.284,22.222,6.566,6.566,245.524,213.277,253.497
0.286,22.284,6.557,6.556,245.542,213.228,253.530
0.288,22.355,6.545,6.544,245.564,213.172,253.566
0.289,22.433,6.532,6.531,245.589,213.108,253.603
0.291,22.519,6.517,6.516,245.616,213.037,253.643
0.292,22.612,6.501,6.501,245.645,212.958,253.684
0.294,22.712,6.484,6.484,245.676,212.873,253.727
0.296,22.820,6.466,6.467,245.709,212.780,253.770
0.297,22.935,6.447,6.449,245.743,212.679,253.813
0.299,23.057,6.428,6.430,245.778,212.571,253.857
0.300,23.184,6.408,6.411,245.814,212.456,253.900
0.302,23.316,6.389,6.390,245.850,212.337,253.943
0.304,23.450,6.369,6.368,245.886,212.215,253.985
0.305,23.584,6.349,6.344,245.921,212.092,254.026
0.307,23.716,6.328,6.321,245.954,211.971,254.066
0.309,23.843,6.307,6.297,245.985,211.853,254.104
0.310,23.964,6.285,6.275,246.014,211.742,254.139
0.312,24.077,6.261,6.255,246.040,211.638,254.173
0.313,24.178,6.235,6.236,246.063,211.543,254.204
0.315,24.267,6.207,6.221,246.081,211.461,254.232
0.317,24.341,6.180,6.209,246.095,211.393,254.257
0.318,24.400,6.155,6.200,246.104,211.339,254.279
0.320,24.444,6.136,6.195,246.109,211.299,254.297
0.321,24.475,6.123,6.193,246.112,211.271,254.311
0.323,24.493,6.121,6.195,246.111,211.256,254.320
0.325,24.499,6.129,6.201,246.109,211.252,254.324
0.326,24.506,6.146,6.209,246.106,211.259,254.323
0.328,24.524,6.167,6.217,246.103,211.275,254.317
0.330,24.552,6.189,6.223,246.099,211.299,254.305
0.331,24.589,6.206,6.224,246.097,211.332,254.286
0.333,24.636,6.216,6.220,246.096,211.372,254.261
0.334,24.692,6.214,6.207,246.097,211.418,254.229
0.336,24.754,6.201,6.187,246.100,211.467,254.192
0.338,24.815,6.181,6.164,246.106,211.514,254.154
0.339,24.870,6.157,6.142,246.113,211.556,254.119
0.341,24.914,6.135,6.123,246.121,211.587,254.089
0.342,24.941,6.117,6.112,246.131,211.604,254.070
0.344,24.953,6.107,6.111,246.141,211.602,254.064
0.346,24.983,6.104,6.119,246.152,211.577,254.074
0.347,25.046,6.102,6.129,246.162,211.523,254.106
0.349,25.149,6.092,6.131,246.173,211.437,254.161
0.351,25.297,6.067,6.117,246.183,211.315,254.244
0.352,25.496,6.020,6.080,246.192,211.152,254.358
0.354,25.741,5.943,6.009,246.201,210.953,254.500
0.355,26.023,5.833,5.903,246.210,210.723,254.665
0.357,26.336,5.698,5.770,246.220,210.470,254.849
0.359,26.670,5.548,5.621,246.231,210.201,255.045
0.360,27.018,5.390,5.467,246.245,209.921,255.251
0.362,27.370,5.235,5.319,246.261,209.637,255.460
0.363,27.720,5.091,5.188,246.281,209.357,255.667
0.365,28.058,4.967,5.083,246.305,209.085,255.869
0.367,28.378,4.862,5.001,246.333,208.831,256.059
0.368,28.670,4.777,4.940,246.367,208.599,256.233
0.370,28.928,4.707,4.894,246.406,208.395,256.387
0.372,29.155,4.653,4.858,246.451,208.218,256.522
0.373,29.354,4.611,4.828,246.500,208.066,256.640
0.375,29.528,4.581,4.799,246.554,207.935,256.741
0.376,29.681,4.560,4.769,246.612,207.824,256.829
0.378,29.816,4.545,4.739,246.674,207.730,256.904
0.380,29.938,4.536,4.710,246.738,207.649,256.970
0.381,30.050,4.529,4.680,246.805,207.580,257.027
0.383,30.155,4.523,4.651,246.873,207.519,257.078
0.384,30.255,4.515,4.623,246.943,207.464,257.124
0.386,30.352,4.504,4.596,247.014,207.413,257.167
0.388,30.449,4.491,4.569,247.085,207.362,257.209
0.389,30.545,4.476,4.543,247.156,207.313,257.250
0.391,30.642,4.460,4.517,247.228,207.263,257.291
0.393,30.738,4.442,4.491,247.300,207.214,257.332
0.394,30.835,4.424,4.464,247.372,207.165,257.374
0.396,30.932,4.406,4.438,247.443,207.115,257.417
0.397,31.030,4.389,4.412,247.515,207.065,257.462
0.399,31.129,4.371,4.387,247.586,207.014,257.508
0.401,31.230,4.355,4.364,247.658,206.962,257.557
0.402,31.332,4.340,4.344,247.728,206.909,257.609
0.404,31.437,4.326,4.326,247.798,206.854,257.663
0.405,31.543,4.313,4.312,247.868,206.798,257.721
0.407,31.652,4.303,4.301,247.937,206.741,257.782
0.409,31.762,4.294,4.294,248.005,206.682,257.845
0.410,31.872,4.287,4.289,248.073,206.622,257.909
0.412,31.983,4.283,4.287,248.140,206.562,257.974
0.414,32.093,4.280,4.287,248.206,206.502,258.038
0.415,32.202,4.279,4.289,248.271,206.441,258.102
0.417,32.310,4.280,4.293,248.334,206.381,258.164
0.418,32.416,4.282,4.297,248.397,206.320,258.224
0.420,32.519,4.285,4.302,248.459,206.261,258.281
0.422,32.619,4.289,4.307,248.519,206.202,258.334
0.423,32.715,4.293,4.312,248.579,206.145,258.384
0.425,32.807,4.297,4.316,248.636,206.088,258.429
0.426,32.895,4.300,4.319,248.691,206.034,258.471
0.428,32.978,4.303,4.321,248.743,205.982,258.510
0.430,33.056,4.306,4.322,248.793,205.933,258.544
0.431,33.129,4.310,4.324,248.839,205.887,258.576
0.433,33.196,4.313,4.326,248.882,205.844,258.604
0.435,33.256,4.318,4.328,248.920,205.805,258.630
0.436,33.310,4.323,4.330,248.954,205.769,258.652
0.438,33.356,4.329,4.333,248.982,205.739,258.672
0.439,33.395,4.335,4.337,249.006,205.713,258.689
0.441,33.426,4.340,4.341,249.024,205.692,258.703
0.443,33.451,4.345,4.345,249.038,205.676,258.715
0.444,33.469,4.349,4.349,249.047,205.663,258.725
0.446,33.483,4.351,4.353,249.053,205.654,258.734
0.447,33.492,4.352,4.357,249.056,205.648,258.740
0.449,33.497,4.353,4.361,249.057,205.645,258.744
0.451,33.501,4.352,4.364,249.055,205.644,258.748
0.452,33.504,4.351,4.367,249.053,205.645,258.749
0.454,33.508,4.349,4.369,249.049,205.648,258.750
0.456,33.513,4.347,4.371,249.046,205.651,258.750
0.457,33.519,4.345,4.371,249.043,205.656,258.748
0.459,33.524,4.343,4.371,249.040,205.660,258.747
0.460,33.529,4.342,4.370,249.038,205.664,258.745
0.462,33.534,4.340,4.370,249.037,205.668,258.743
0.464,33.537,4.338,4.369,249.036,205.671,258.742
0.465,33.539,4.337,4.369,249.035,205.673,258.741
0.467,33.540,4.336,4.369,249.034,205.673,258.742
0.468,33.543,4.336,4.371,249.034,205.671,258.744
0.470,33.549,4.337,4.374,249.033,205.667,258.748
0.472,33.558,4.340,4.379,249.033,205.660,258.754
0.473,33.571,4.345,4.387,249.033,205.650,258.763
0.475,33.589,4.352,4.398,249.033,205.637,258.775
0.477,33.610,4.362,4.412,249.032,205.621,258.789
0.478,33.636,4.373,4.429,249.031,205.602,258.806
0.480,33.664,4.383,4.446,249.029,205.582,258.826
0.481,33.695,4.392,4.463,249.026,205.560,258.848
0.483,33.727,4.397,4.478,249.022,205.539,258.872
0.485,33.762,4.397,4.491,249.017,205.517,258.898
0.486,33.797,4.390,4.501,249.010,205.496,258.925
0.488,33.834,4.379,4.507,249.002,205.476,258.955
0.489,33.871,4.363,4.511,248.991,205.459,258.986
0.491,33.908,4.345,4.514,248.978,205.444,259.018
0.493,33.947,4.327,4.516,248.962,205.432,259.051
0.494,33.985,4.309,4.520,248.946,205.423,259.084
0.496,34.023,4.294,4.525,248.929,205.416,259.117
0.498,34.058,4.282,4.532,248.914,205.410,259.149
0.499,34.090,4.272,4.541,248.902,205.404,259.178
0.501,34.118,4.265,4.551,248.895,205.398,259.204
0.502,34.141,4.260,4.562,248.894,205.391,259.226
0.504,34.161,4.257,4.574,248.899,205.383,259.243
0.506,34.182,4.257,4.586,248.914,205.372,259.254
0.507,34.211,4.259,4.597,248.938,205.358,259.259
0.509,34.251,4.261,4.606,248.974,205.339,259.256
0.511,34.305,4.265,4.612,249.022,205.317,259.247
0.512,34.370,4.268,4.612,249.079,205.288,259.236
0.514,34.442,4.271,4.606,249.141,205.251,259.229
0.515,34.521,4.273,4.592,249.205,205.205,259.234
0.517,34.609,4.273,4.569,249.268,205.148,259.256
0.519,34.709,4.269,4.537,249.325,205.079,259.302
0.520,34.831,4.261,4.495,249.373,204.996,259.378
0.522,34.985,4.246,4.444,249.408,204.897,259.490
0.523,35.178,4.222,4.384,249.428,204.782,259.644
0.525,35.422,4.189,4.315,249.428,204.648,259.847
0.527,35.723,4.146,4.238,249.405,204.495,260.106
0.528,36.086,4.099,4.161,249.357,204.321,260.420
0.530,36.498,4.058,4.094,249.288,204.132,260.780
0.532,36.948,4.032,4.049,249.202,203.933,261.175
0.533,37.423,4.031,4.035,249.103,203.727,261.591
0.535,37.909,4.065,4.064,248.994,203.521,262.017
0.536,38.393,4.141,4.145,248.881,203.317,262.441
0.538,38.862,4.255,4.272,248.767,203.122,262.852
0.540,39.303,4.394,4.428,248.656,202.940,263.238
0.541,39.702,4.543,4.597,248.551,202.776,263.586
0.543,40.045,4.688,4.762,248.458,202.634,263.885
0.544,40.321,4.816,4.905,248.380,202.519,264.124
0.546,40.524,4.912,5.009,248.320,202.433,264.297
0.548,40.663,4.971,5.068,248.275,202.372,264.413
0.549,40.746,5.000,5.091,248.245,202.334,264.481
0.551,40.784,5.005,5.087,248.228,202.315,264.509
0.553,40.791,4.994,5.065,248.223,202.311,264.506
0.554,40.819,4.974,5.035,248.230,202.319,264.481
0.556,40.865,4.954,5.007,248.246,202.336,264.441
0.557,40.921,4.937,4.987,248.270,202.359,264.396
0.559,40.978,4.926,4.977,248.301,202.383,264.354
0.561,41.031,4.920,4.976,248.338,202.406,264.323
0.562,41.077,4.918,4.982,248.379,202.424,264.314
0.564,41.125,4.921,4.997,248.424,202.435,264.327
0.565,41.184,4.929,5.018,248.473,202.437,264.360
0.567,41.257,4.941,5.047,248.525,202.429,264.411
0.569,41.345,4.956,5.079,248.579,202.410,264.476
0.570,41.446,4.975,5.112,248.637,202.379,264.553
0.572,41.559,4.995,5.144,248.697,202.334,264.638
0.574,41.685,5.016,5.171,248.760,202.273,264.728
0.575,41.822,5.038,5.191,248.825,202.196,264.821
0.577,41.970,5.059,5.199,248.892,202.102,264.913
0.578,42.130,5.079,5.198,248.961,201.988,265.002
0.580,42.302,5.095,5.187,249.032,201.854,265.084
0.582,42.487,5.106,5.169,249.104,201.701,265.158
0.583,42.683,5.111,5.146,249.179,201.532,265.225
0.585,42.889,5.108,5.119,249.256,201.350,265.284
0.586,43.102,5.095,5.090,249.336,201.159,265.335
0.588,43.322,5.072,5.061,249.420,200.962,265.379
0.590,43.544,5.040,5.031,249.508,200.761,265.416
0.591,43.767,5.001,5.000,249.600,200.560,265.445
0.593,43.988,4.958,4.970,249.697,200.362,265.467
0.595,44.206,4.910,4.939,249.799,200.170,265.482
0.596,44.418,4.861,4.909,249.906,199.988,265.489
0.598,44.622,4.811,4.879,250.019,199.817,265.489
0.599,44.819,4.763,4.850,250.137,199.660,265.484
0.601,45.006,4.718,4.823,250.257,199.516,265.473
0.603,45.185,4.679,4.797,250.377,199.385,265.458
0.604,45.352,4.648,4.774,250.495,199.268,265.442
0.606,45.508,4.627,4.753,250.610,199.164,265.423
0.607,45.651,4.616,4.736,250.718,199.073,265.405
0.609,45.778,4.616,4.723,250.818,198.995,265.388
0.611,45.890,4.624,4.713,250.908,198.931,265.374
0.612,45.983,4.637,4.708,250.985,198.880,265.363
0.614,46.056,4.655,4.706,251.048,198.843,265.357
0.616,46.109,4.674,4.710,251.095,198.819,265.357
0.617,46.145,4.692,4.718,251.127,198.805,265.363
0.619,46.168,4.709,4.729,251.148,198.799,265.372
0.620,46.184,4.722,4.742,251.159,198.797,265.384
0.622,46.199,4.733,4.755,251.162,198.796,265.398
0.624,46.214,4.739,4.765,251.162,198.794,265.413
0.625,46.230,4.739,4.772,251.159,198.785,265.427
0.627,46.251,4.734,4.773,251.156,198.769,265.439
0.628,46.280,4.722,4.766,251.157,198.741,265.449
0.630,46.324,4.704,4.753,251.163,198.698,265.454
0.632,46.386,4.681,4.734,251.176,198.637,265.454
0.633,46.470,4.654,4.709,251.199,198.557,265.449
0.635,46.575,4.624,4.678,251.231,198.458,265.438
0.637,46.696,4.590,4.643,251.269,198.344,265.424
0.638,46.831,4.554,4.603,251.312,198.216,265.408
0.640,46.978,4.518,4.561,251.358,198.078,265.391
0.641,47.132,4.481,4.519,251.405,197.933,265.374
0.643,47.290,4.444,4.480,251.451,197.782,265.360
0.645,47.450,4.410,4.444,251.495,197.628,265.349
0.646,47.609,4.379,4.416,251.535,197.475,265.342
0.648,47.764,4.352,4.396,251.569,197.323,265.341
0.649,47.912,4.329,4.383,251.595,197.178,265.348
0.651,48.053,4.309,4.378,251.612,197.039,265.362
0.653,48.186,4.294,4.378,251.622,196.908,265.384
0.654,48.312,4.283,4.381,251.625,196.785,265.410
0.656,48.430,4.276,4.387,251.623,196.670,265.439
0.658,48.540,4.272,4.395,251.616,196.565,265.471
