"T","Distance","Radius","FreeRadius","X","Y","Z"
0.000,0.000,1.404,1.404,195.966,172.027,179.668
0.001,0.108,1.390,1.390,195.890,172.104,179.658
0.003,0.215,1.378,1.378,195.815,172.180,179.652
0.004,0.320,1.368,1.368,195.743,172.256,179.654
0.006,0.423,1.363,1.363,195.673,172.330,179.668
0.007,0.525,1.363,1.363,195.606,172.402,179.697
0.009,0.631,1.371,1.371,195.545,172.472,179.747
0.010,0.745,1.387,1.387,195.488,172.539,179.819
0.011,0.873,1.412,1.412,195.439,172.603,179.920
0.013,1.025,1.449,1.449,195.396,172.663,180.052
0.014,1.204,1.499,1.499,195.362,172.720,180.219
0.016,1.419,1.562,1.562,195.338,172.771,180.426
0.017,1.671,1.641,1.641,195.323,172.818,180.673
0.019,1.955,1.736,1.736,195.316,172.860,180.954
0.020,2.263,1.849,1.849,195.316,172.897,181.260
0.021,2.587,1.980,1.980,195.322,172.929,181.582
0.023,2.919,2.124,2.124,195.331,172.958,181.913
0.024,3.250,2.272,2.272,195.343,172.982,182.243
0.026,3.572,2.419,2.419,195.355,173.002,182.563
0.027,3.875,2.555,2.555,195.367,173.018,182.866
0.029,4.152,2.675,2.675,195.376,173.030,183.143
0.030,4.394,2.769,2.769,195.382,173.038,183.385
0.032,4.593,2.833,2.833,195.382,173.043,183.583
0.033,4.744,2.869,2.869,195.375,173.045,183.734
0.034,4.851,2.883,2.883,195.363,173.044,183.841
0.036,4.922,2.881,2.881,195.345,173.042,183.909
0.037,4.963,2.871,2.871,195.322,173.038,183.944
0.039,4.992,2.858,2.858,195.295,173.033,183.951
0.040,5.027,2.848,2.848,195.263,173.028,183.935
0.042,5.075,2.848,2.848,195.229,173.023,183.903
0.043,5.133,2.856,2.856,195.191,173.020,183.859
0.044,5.198,2.871,2.871,195.151,173.018,183.808
0.046,5.264,2.890,2.890,195.109,173.019,183.757
0.047,5.328,2.909,2.909,195.066,173.023,183.710
0.049,5.387,2.927,2.927,195.022,173.029,183.670
0.050,5.443,2.941,2.941,194.977,173.038,183.639
0.052,5.497,2.948,2.948,194.930,173.046,183.614
0.053,5.549,2.947,2.947,194.881,173.052,183.596
0.054,5.601,2.941,2.941,194.830,173.055,183.584
0.056,5.655,2.928,2.928,194.777,173.054,183.578
0.057,5.712,2.910,2.910,194.721,173.046,183.577
0.059,5.772,2.886,2.886,194.662,173.031,183.581
0.060,5.840,2.859,2.859,194.600,173.006,183.588
0.062,5.915,2.828,2.828,194.535,172.970,183.599
0.063,6.001,2.794,2.794,194.465,172.922,183.614
0.064,6.097,2.759,2.759,194.393,172.862,183.630
0.066,6.201,2.723,2.723,194.317,172.792,183.648
0.067,6.311,2.688,2.688,194.240,172.716,183.667
0.069,6.425,2.656,2.656,194.161,172.635,183.685
0.070,6.539,2.626,2.626,194.083,172.555,183.702
0.072,6.651,2.601,2.601,194.005,172.476,183.717
0.073,6.758,2.581,2.581,193.929,172.402,183.729
0.074,6.857,2.565,2.565,193.855,172.336,183.736
0.076,6.947,2.553,2.553,193.784,172.280,183.738
0.077,7.026,2.545,2.545,193.717,172.238,183.735
0.079,7.093,2.540,2.540,193.656,172.213,183.724
0.080,7.153,2.538,2.538,193.599,172.202,183.708
0.082,7.208,2.539,2.539,193.547,172.202,183.688
0.083,7.260,2.541,2.541,193.500,172.206,183.670
0.085,7.306,2.543,2.543,193.456,172.211,183.655
0.086,7.347,2.540,2.540,193.416,172.209,183.647
0.087,7.387,2.532,2.532,193.378,172.196,183.650
0.089,7.435,2.515,2.515,193.343,172.167,183.666
0.090,7.504,2.487,2.487,193.310,172.116,183.699
0.092,7.604,2.447,2.447,193.278,172.038,183.752
0.093,7.741,2.396,2.396,193.248,171.927,183.828
0.095,7.924,2.339,2.339,193.218,171.779,183.930
0.096,8.149,2.281,2.281,193.188,171.596,184.057
0.097,8.409,2.229,2.229,193.160,171.383,184.204
0.099,8.696,2.187,2.187,193.132,171.148,184.366
0.100,9.000,2.162,2.162,193.107,170.898,184.538
0.102,9.314,2.158,2.158,193.084,170.640,184.714
0.103,9.628,2.176,2.176,193.063,170.380,184.891
0.105,9.934,2.210,2.210,193.045,170.127,185.061
0.106,10.224,2.256,2.256,193.030,169.886,185.222
0.107,10.488,2.308,2.308,193.020,169.666,185.366
0.109,10.718,2.361,2.361,193.013,169.472,185.490
0.110,10.907,2.409,2.409,193.011,169.311,185.589
0.112,11.053,2.449,2.449,193.012,169.184,185.662
0.113,11.162,2.476,2.476,193.016,169.088,185.712
0.115,11.239,2.493,2.493,193.022,169.018,185.743
0.116,11.288,2.501,2.501,193.028,168.971,185.758
0.117,11.315,2.502,2.502,193.033,168.944,185.758
0.119,11.331,2.497,2.497,193.036,168.933,185.748
0.120,11.348,2.486,2.486,193.035,168.934,185.731
0.122,11.373,2.472,2.472,193.030,168.944,185.708
0.123,11.404,2.457,2.457,193.020,168.959,185.684
0.125,11.437,2.441,2.441,193.002,168.976,185.661
0.126,11.472,2.426,2.426,192.977,168.991,185.642
0.128,11.509,2.414,2.414,192.945,169.002,185.628
0.129,11.548,2.406,2.406,192.908,169.010,185.619
0.130,11.588,2.403,2.403,192.867,169.013,185.616
0.132,11.630,2.408,2.408,192.826,169.012,185.617
0.133,11.672,2.420,2.420,192.785,169.004,185.625
0.135,11.714,2.437,2.437,192.747,168.991,185.637
0.136,11.758,2.458,2.458,192.713,168.971,185.656
0.138,11.803,2.480,2.480,192.686,168.945,185.680
0.139,11.853,2.502,2.502,192.667,168.910,185.710
0.140,11.909,2.521,2.521,192.658,168.867,185.746
0.142,11.976,2.535,2.535,192.661,168.816,185.788
0.143,12.052,2.544,2.544,192.674,168.756,185.835
0.145,12.139,2.548,2.548,192.694,168.690,185.886
0.146,12.232,2.548,2.548,192.718,168.617,185.939
0.148,12.330,2.544,2.544,192.744,168.540,185.993
0.149,12.431,2.537,2.537,192.768,168.458,186.048
0.150,12.533,2.528,2.528,192.789,168.373,186.101
0.152,12.634,2.517,2.517,192.802,168.286,186.151
0.153,12.734,2.506,2.506,192.805,168.198,186.197
0.155,12.832,2.496,2.496,192.796,168.110,186.238
0.156,12.929,2.489,2.489,192.771,168.023,186.273
0.158,13.028,2.487,2.487,192.729,167.937,186.300
0.159,13.133,2.492,2.492,192.669,167.853,186.321
0.160,13.244,2.504,2.504,192.596,167.771,186.337
0.162,13.362,2.526,2.526,192.510,167.691,186.350
0.163,13.486,2.559,2.559,192.415,167.613,186.362
0.165,13.615,2.599,2.599,192.311,167.536,186.375
0.166,13.748,2.644,2.644,192.203,167.462,186.389
0.168,13.883,2.690,2.690,192.090,167.389,186.408
0.169,14.019,2.734,2.734,191.977,167.318,186.432
0.170,14.155,2.774,2.774,191.865,167.249,186.463
0.172,14.289,2.806,2.806,191.755,167.182,186.504
0.173,14.422,2.829,2.829,191.651,167.116,186.554
0.175,14.555,2.844,2.844,191.552,167.051,186.614
0.176,14.689,2.854,2.854,191.457,166.987,186.682
0.178,14.824,2.863,2.863,191.366,166.921,186.757
0.179,14.961,2.872,2.872,191.278,166.853,186.839
0.181,15.101,2.884,2.884,191.193,166.783,186.925
0.182,15.244,2.902,2.902,191.111,166.710,187.016
0.183,15.389,2.928,2.928,191.032,166.632,187.109
0.185,15.538,2.960,2.960,190.953,166.549,187.204
0.186,15.690,2.999,2.999,190.876,166.459,187.300
0.188,15.845,3.042,3.042,190.800,166.363,187.395
0.189,16.004,3.089,3.089,190.724,166.259,187.489
0.191,16.165,3.138,3.138,190.650,166.150,187.581
0.192,16.324,3.188,3.188,190.580,166.037,187.668
0.193,16.481,3.238,3.238,190.514,165.922,187.751
0.195,16.631,3.286,3.286,190.453,165.808,187.828
0.196,16.774,3.330,3.330,190.400,165.695,187.898
0.198,16.906,3.369,3.369,190.355,165.587,187.960
0.199,17.027,3.401,3.401,190.321,165.484,188.012
0.201,17.133,3.424,3.424,190.297,165.390,188.055
0.202,17.224,3.436,3.436,190.286,165.305,188.086
0.203,17.300,3.436,3.436,190.289,165.232,188.104
0.205,17.363,3.427,3.427,190.305,165.171,188.111
0.206,17.417,3.411,3.411,190.330,165.123,188.108
0.208,17.466,3.391,3.391,190.359,165.085,188.098
0.209,17.508,3.370,3.370,190.387,165.056,188.086
0.211,17.540,3.351,3.351,190.409,165.037,188.073
0.212,17.559,3.338,3.338,190.421,165.024,188.065
0.213,17.567,3.332,3.332,190.416,165.017,188.062
0.215,17.594,3.337,3.337,190.391,165.016,188.069
0.216,17.648,3.355,3.355,190.340,165.018,188.089
0.218,17.738,3.388,3.388,190.259,165.023,188.125
0.219,17.867,3.439,3.439,190.142,165.029,188.181
0.221,18.037,3.510,3.510,189.990,165.035,188.256
0.222,18.239,3.604,3.604,189.811,165.038,188.349
0.223,18.463,3.722,3.722,189.614,165.033,188.456
0.225,18.700,3.856,3.856,189.409,165.019,188.574
0.226,18.942,3.994,3.994,189.204,164.991,188.701
0.228,19.181,4.126,4.126,189.010,164.946,188.832
0.229,19.411,4.242,4.242,188.834,164.882,188.966
0.231,19.627,4.330,4.330,188.686,164.795,189.098
0.232,19.831,4.379,4.379,188.576,164.681,189.226
0.234,20.028,4.381,4.381,188.513,164.538,189.346
0.235,20.236,4.340,4.340,188.505,164.362,189.457
0.236,20.471,4.265,4.265,188.554,164.155,189.555
0.238,20.738,4.167,4.167,188.652,163.923,189.643
0.239,21.034,4.054,4.054,188.789,163.673,189.721
0.241,21.352,3.936,3.936,188.959,163.412,189.790
0.242,21.684,3.824,3.824,189.150,163.148,189.851
0.244,22.021,3.725,3.725,189.355,162.887,189.906
0.245,22.351,3.642,3.642,189.565,162.636,189.954
0.246,22.665,3.573,3.573,189.771,162.404,189.998
0.248,22.952,3.519,3.519,189.965,162.195,190.038
0.249,23.201,3.478,3.478,190.136,162.019,190.075
0.251,23.402,3.449,3.449,190.278,161.881,190.111
0.252,23.554,3.431,3.431,190.388,161.781,190.146
0.254,23.666,3.424,3.424,190.469,161.713,190.180
0.255,23.746,3.424,3.424,190.527,161.670,190.215
0.256,23.805,3.431,3.431,190.565,161.644,190.252
0.258,23.853,3.440,3.440,190.589,161.628,190.291
0.259,23.899,3.451,3.451,190.603,161.616,190.333
0.261,23.949,3.460,3.460,190.610,161.600,190.379
0.262,24.006,3.464,3.464,190.617,161.574,190.430
0.264,24.078,3.463,3.463,190.626,161.529,190.486
0.265,24.173,3.456,3.456,190.643,161.460,190.549
0.266,24.299,3.445,3.445,190.671,161.359,190.618
0.268,24.457,3.432,3.432,190.712,161.226,190.694
0.269,24.643,3.421,3.421,190.763,161.067,190.775
0.271,24.850,3.413,3.413,190.822,160.887,190.858
0.272,25.073,3.410,3.410,190.886,160.691,190.943
0.274,25.307,3.414,3.414,190.954,160.484,191.028
0.275,25.544,3.426,3.426,191.023,160.272,191.111
0.277,25.781,3.443,3.443,191.091,160.060,191.190
0.278,26.009,3.465,3.465,191.156,159.854,191.264
0.279,26.225,3.489,3.489,191.214,159.658,191.330
0.281,26.421,3.514,3.514,191.265,159.478,191.388
0.282,26.592,3.538,3.538,191.306,159.318,191.436
0.284,26.738,3.560,3.560,191.337,159.181,191.474
0.285,26.861,3.580,3.580,191.360,159.064,191.504
0.287,26.962,3.598,3.598,191.375,158.966,191.526
0.288,27.045,3.613,3.613,191.384,158.885,191.542
0.289,27.110,3.628,3.628,191.388,158.821,191.553
0.291,27.160,3.641,3.641,191.389,158.772,191.561
0.292,27.197,3.654,3.654,191.387,158.736,191.567
0.294,27.221,3.666,3.666,191.385,158.712,191.572
0.295,27.236,3.678,3.678,191.384,158.698,191.578
0.297,27.245,3.689,3.689,191.384,158.694,191.587
0.298,27.257,3.700,3.700,191.387,158.697,191.598
0.299,27.275,3.710,3.710,191.393,158.705,191.612
0.301,27.295,3.719,3.719,191.401,158.715,191.627
0.302,27.315,3.726,3.726,191.412,158.724,191.642
0.304,27.334,3.732,3.732,191.423,158.729,191.656
0.305,27.351,3.736,3.736,191.435,158.726,191.668
0.307,27.370,3.738,3.738,191.447,158.713,191.676
0.308,27.399,3.739,3.739,191.458,158.686,191.678
0.309,27.444,3.737,3.737,191.468,158.643,191.675
0.311,27.508,3.734,3.734,191.476,158.580,191.664
0.312,27.597,3.729,3.729,191.482,158.494,191.644
0.314,27.712,3.722,3.722,191.485,158.383,191.614
0.315,27.850,3.713,3.713,191.485,158.250,191.576
0.317,28.005,3.703,3.704,191.482,158.101,191.532
0.318,28.173,3.694,3.695,191.478,157.941,191.482
0.319,28.347,3.686,3.687,191.471,157.775,191.431
0.321,28.522,3.680,3.681,191.463,157.608,191.379
0.322,28.691,3.677,3.677,191.453,157.446,191.329
0.324,28.851,3.678,3.678,191.442,157.294,191.282
0.325,28.994,3.683,3.682,191.430,157.158,191.241
0.327,29.115,3.691,3.689,191.417,157.042,191.207
0.328,29.209,3.700,3.699,191.404,156.952,191.184
0.330,29.273,3.710,3.709,191.391,156.891,191.171
0.331,29.310,3.720,3.719,191.378,156.856,191.167
0.332,29.331,3.729,3.728,191.366,156.840,191.168
0.334,29.344,3.735,3.735,191.353,156.837,191.172
0.335,29.357,3.738,3.740,191.342,156.842,191.175
0.337,29.369,3.738,3.742,191.330,156.847,191.173
0.338,29.383,3.737,3.742,191.320,156.848,191.165
0.340,29.407,3.733,3.739,191.311,156.837,191.145
0.341,29.450,3.729,3.734,191.303,156.810,191.113
0.342,29.522,3.724,3.726,191.296,156.759,191.063
0.344,29.628,3.718,3.716,191.290,156.678,190.993
0.345,29.774,3.713,3.705,191.286,156.565,190.901
0.347,29.954,3.708,3.694,191.284,156.423,190.792
0.348,30.160,3.706,3.686,191.283,156.258,190.668
0.350,30.385,3.706,3.684,191.282,156.076,190.536
0.351,30.622,3.709,3.689,191.282,155.882,190.399
0.352,30.863,3.716,3.705,191.283,155.684,190.263
0.354,31.101,3.729,3.733,191.284,155.485,190.131
0.355,31.328,3.746,3.775,191.286,155.294,190.009
0.357,31.538,3.767,3.824,191.287,155.114,189.900
0.358,31.723,3.790,3.878,191.288,154.952,189.811
0.360,31.876,3.815,3.931,191.288,154.815,189.744
0.361,31.994,3.839,3.978,191.287,154.704,189.703
0.362,32.082,3.862,4.014,191.285,154.618,189.684
0.364,32.148,3.883,4.035,191.281,154.553,189.682
0.365,32.199,3.900,4.038,191.274,154.503,189.692
0.367,32.242,3.914,4.027,191.263,154.466,189.711
0.368,32.281,3.923,4.007,191.248,154.437,189.733
0.370,32.319,3.930,3.982,191.228,154.412,189.754
0.371,32.358,3.932,3.957,191.202,154.388,189.769
0.372,32.401,3.932,3.938,191.170,154.360,189.773
0.374,32.455,3.928,3.928,191.131,154.324,189.763
0.375,32.528,3.920,3.930,191.083,154.277,189.733
0.377,32.626,3.911,3.942,191.028,154.215,189.682
0.378,32.746,3.902,3.961,190.965,154.139,189.613
0.380,32.888,3.894,3.984,190.894,154.049,189.530
0.381,33.047,3.888,4.007,190.816,153.946,189.436
0.383,33.222,3.887,4.027,190.730,153.830,189.337
0.384,33.410,3.890,4.041,190.639,153.702,189.236
0.385,33.608,3.901,4.048,190.541,153.561,189.137
0.387,33.815,3.918,4.050,190.437,153.408,189.043
0.388,34.029,3.941,4.049,190.327,153.245,188.960
0.390,34.249,3.970,4.049,190.212,153.070,188.890
0.391,34.475,4.005,4.054,190.093,152.885,188.839
0.393,34.708,4.045,4.067,189.969,152.690,188.807
0.394,34.946,4.091,4.090,189.842,152.489,188.792
0.395,35.187,4.141,4.127,189.715,152.284,188.794
0.397,35.430,4.195,4.174,189.587,152.078,188.808
0.398,35.672,4.251,4.229,189.462,151.873,188.834
0.400,35.910,4.307,4.288,189.340,151.672,188.868
0.401,36.141,4.361,4.349,189.222,151.477,188.909
0.403,36.362,4.413,4.407,189.112,151.292,188.955
0.404,36.569,4.460,4.460,189.009,151.118,189.003
0.405,36.760,4.502,4.506,188.915,150.959,189.052
0.407,36.931,4.539,4.544,188.833,150.817,189.098
0.408,37.080,4.570,4.576,188.761,150.693,189.142
0.410,37.210,4.598,4.603,188.700,150.586,189.182
0.411,37.322,4.622,4.626,188.649,150.494,189.219
0.413,37.417,4.644,4.646,188.605,150.416,189.253
0.414,37.498,4.664,4.664,188.569,150.350,189.284
0.415,37.566,4.683,4.682,188.539,150.296,189.312
0.417,37.623,4.700,4.698,188.515,150.251,189.337
0.418,37.670,4.715,4.713,188.495,150.215,189.359
0.420,37.709,4.728,4.727,188.478,150.185,189.378
0.421,37.741,4.739,4.739,188.463,150.161,189.393
0.423,37.768,4.748,4.748,188.450,150.141,189.406
0.424,37.791,4.755,4.755,188.437,150.124,189.415
0.426,37.811,4.758,4.759,188.425,150.111,189.423
0.427,37.828,4.760,4.760,188.414,150.099,189.428
0.428,37.843,4.759,4.759,188.402,150.090,189.432
0.430,37.857,4.757,4.757,188.391,150.082,189.434
0.431,37.870,4.754,4.754,188.380,150.075,189.436
0.433,37.882,4.750,4.750,188.369,150.070,189.437
0.434,37.895,4.746,4.746,188.358,150.064,189.439
0.436,37.908,4.743,4.743,188.347,150.059,189.440
0.437,37.921,4.740,4.741,188.335,150.053,189.443
0.438,37.936,4.738,4.739,188.322,150.046,189.447
0.440,37.952,4.737,4.738,188.309,150.038,189.452
0.441,37.970,4.736,4.737,188.295,150.029,189.458
0.443,37.989,4.737,4.737,188.281,150.019,189.466
0.444,38.009,4.738,4.738,188.266,150.008,189.474
0.446,38.031,4.740,4.740,188.251,149.996,189.483
0.447,38.054,4.743,4.742,188.235,149.983,189.494
0.448,38.078,4.747,4.744,188.219,149.969,189.504
0.450,38.103,4.751,4.748,188.202,149.953,189.516
0.451,38.130,4.754,4.753,188.185,149.937,189.528
0.453,38.157,4.757,4.760,188.167,149.920,189.540
0.454,38.186,4.759,4.767,188.149,149.902,189.553
0.456,38.215,4.760,4.776,188.130,149.884,189.566
0.457,38.245,4.760,4.787,188.112,149.865,189.580
0.458,38.276,4.760,4.798,188.093,149.847,189.596
0.460,38.306,4.758,4.809,188.075,149.829,189.613
0.461,38.338,4.756,4.820,188.056,149.812,189.632
0.463,38.370,4.753,4.829,188.038,149.797,189.654
0.464,38.403,4.751,4.838,188.021,149.784,189.679
0.466,38.437,4.748,4.844,188.005,149.773,189.707
0.467,38.473,4.745,4.848,187.989,149.766,189.739
0.468,38.512,4.742,4.850,187.975,149.762,189.775
0.470,38.554,4.739,4.850,187.961,149.761,189.815
0.471,38.601,4.736,4.848,187.949,149.764,189.860
0.473,38.653,4.732,4.843,187.937,149.767,189.911
0.474,38.710,4.728,4.837,187.925,149.770,189.967
0.476,38.773,4.724,4.828,187.914,149.770,190.028
0.477,38.843,4.718,4.816,187.902,149.767,190.097
0.479,38.919,4.710,4.801,187.889,149.758,190.171
0.480,39.003,4.699,4.782,187.876,149.743,190.253
0.481,39.097,4.683,4.757,187.861,149.719,190.342
0.483,39.201,4.662,4.725,187.844,149.684,190.439
0.484,39.317,4.634,4.687,187.826,149.638,190.544
0.486,39.447,4.599,4.640,187.805,149.579,190.657
0.487,39.590,4.557,4.587,187.781,149.505,190.779
0.489,39.749,4.511,4.530,187.756,149.417,190.908
0.490,39.922,4.462,4.472,187.729,149.314,191.044
0.491,40.111,4.414,4.417,187.700,149.195,191.188
0.493,40.315,4.367,4.366,187.669,149.061,191.339
0.494,40.535,4.326,4.324,187.637,148.909,191.496
0.496,40.772,4.290,4.293,187.604,148.740,191.659
0.497,41.026,4.264,4.275,187.569,148.554,191.827
0.499,41.297,4.247,4.270,187.533,148.350,192.001
0.500,41.586,4.241,4.280,187.497,148.126,192.181
0.501,41.892,4.249,4.304,187.459,147.885,192.364
0.503,42.210,4.270,4.344,187.422,147.629,192.550
0.504,42.535,4.307,4.400,187.384,147.363,192.734
0.506,42.862,4.361,4.473,187.348,147.093,192.915
0.507,43.185,4.430,4.560,187.312,146.824,193.089
0.509,43.498,4.509,4.654,187.278,146.560,193.254
0.510,43.796,4.593,4.750,187.246,146.306,193.408
0.511,44.074,4.676,4.841,187.217,146.068,193.546
0.513,44.324,4.754,4.920,187.190,145.850,193.666
0.514,44.543,4.820,4.981,187.168,145.657,193.767
0.516,44.724,4.871,5.017,187.149,145.494,193.844
0.517,44.865,4.904,5.029,187.135,145.364,193.896
0.519,44.970,4.923,5.021,187.124,145.263,193.926
0.520,45.046,4.931,5.000,187.118,145.188,193.937
0.521,45.101,4.931,4.973,187.115,145.134,193.931
0.523,45.143,4.926,4.946,187.116,145.097,193.911
0.524,45.182,4.921,4.925,187.119,145.071,193.881
0.526,45.224,4.917,4.917,187.126,145.053,193.844
0.527,45.269,4.917,4.923,187.135,145.039,193.803
0.529,45.317,4.920,4.941,187.147,145.023,193.760
0.530,45.365,4.926,4.965,187.160,145.002,193.718
0.532,45.416,4.934,4.993,187.176,144.971,193.681
0.533,45.471,4.942,5.020,187.193,144.927,193.651
0.534,45.533,4.951,5.043,187.211,144.873,193.627
0.536,45.602,4.960,5.057,187.229,144.810,193.609
0.537,45.675,4.967,5.061,187.248,144.740,193.597
0.539,45.751,4.974,5.056,187.266,144.666,193.589
0.540,45.829,4.980,5.046,187.283,144.590,193.586
0.542,45.907,4.984,5.031,187.298,144.514,193.587
0.543,45.982,4.988,5.015,187.312,144.440,193.591
0.544,46.053,4.990,5.000,187.323,144.370,193.597
0.546,46.117,4.990,4.987,187.332,144.307,193.606
0.547,46.173,4.990,4.979,187.337,144.253,193.617
0.549,46.219,4.988,4.974,187.338,144.208,193.629
0.550,46.260,4.984,4.971,187.336,144.169,193.641
0.552,46.300,4.980,4.969,187.331,144.132,193.652
0.553,46.340,4.974,4.967,187.324,144.093,193.662
0.554,46.385,4.968,4.965,187.315,144.049,193.668
0.556,46.439,4.960,4.961,187.305,143.996,193.671
0.557,46.505,4.952,4.954,187.294,143.931,193.669
0.559,46.587,4.944,4.947,187.283,143.850,193.661
0.560,46.689,4.938,4.941,187.271,143.750,193.647
0.562,46.816,4.935,4.938,187.260,143.626,193.625
0.563,46.970,4.937,4.939,187.250,143.475,193.594
0.564,47.152,4.945,4.945,187.242,143.298,193.555
0.566,47.355,4.959,4.959,187.234,143.100,193.509
0.567,47.574,4.982,4.981,187.228,142.887,193.457
0.569,47.803,5.010,5.010,187.223,142.665,193.402
0.570,48.034,5.042,5.042,187.220,142.441,193.344
0.572,48.263,5.077,5.077,187.218,142.220,193.287
0.573,48.482,5.112,5.113,187.218,142.008,193.230
0.574,48.685,5.146,5.146,187.220,141.812,193.176
0.576,48.867,5.177,5.176,187.223,141.637,193.127
0.577,49.021,5.203,5.201,187.227,141.490,193.083
0.579,49.141,5.225,5.221,187.234,141.375,193.048
0.580,49.227,5.242,5.238,187.242,141.295,193.020
0.582,49.285,5.256,5.251,187.251,141.242,192.997
0.583,49.323,5.266,5.261,187.260,141.210,192.978
