"T","Distance","Radius","FreeRadius","X","Y","Z"
0.000,0.000,2.835,2.835,195.157,227.848,198.553
0.001,0.062,2.822,2.822,195.105,227.832,198.524
0.003,0.122,2.811,2.811,195.054,227.815,198.498
0.004,0.176,2.805,2.805,195.006,227.798,198.479
0.005,0.225,2.804,2.804,194.961,227.781,198.471
0.007,0.268,2.810,2.810,194.922,227.763,198.476
0.008,0.311,2.826,2.826,194.890,227.745,198.499
0.009,0.365,2.854,2.854,194.866,227.725,198.543
0.010,0.437,2.894,2.894,194.852,227.705,198.611
0.012,0.536,2.949,2.949,194.848,227.684,198.707
0.013,0.665,3.015,3.015,194.856,227.661,198.834
0.014,0.830,3.091,3.091,194.878,227.637,198.996
0.016,1.032,3.173,3.173,194.914,227.612,199.192
0.017,1.263,3.261,3.261,194.961,227.586,199.417
0.018,1.516,3.350,3.350,195.017,227.561,199.663
0.020,1.783,3.440,3.440,195.079,227.535,199.921
0.021,2.056,3.527,3.527,195.145,227.512,200.185
0.022,2.327,3.610,3.610,195.213,227.490,200.447
0.024,2.588,3.688,3.688,195.279,227.470,200.699
0.025,2.832,3.761,3.761,195.342,227.454,200.933
0.026,3.049,3.828,3.828,195.399,227.442,201.142
0.027,3.232,3.887,3.887,195.447,227.434,201.319
0.029,3.374,3.939,3.939,195.484,227.432,201.456
0.030,3.473,3.983,3.983,195.509,227.434,201.551
0.031,3.534,4.017,4.017,195.525,227.440,201.611
0.033,3.566,4.043,4.043,195.534,227.448,201.639
0.034,3.577,4.061,4.061,195.537,227.458,201.643
0.035,3.594,4.073,4.073,195.537,227.468,201.628
0.037,3.624,4.080,4.080,195.536,227.476,201.600
0.038,3.661,4.082,4.082,195.536,227.482,201.564
0.039,3.699,4.082,4.082,195.540,227.484,201.526
0.041,3.735,4.080,4.080,195.549,227.481,201.491
0.042,3.766,4.076,4.076,195.566,227.471,201.466
0.043,3.799,4.073,4.073,195.592,227.454,201.455
0.044,3.842,4.069,4.069,195.628,227.431,201.460
0.046,3.899,4.065,4.065,195.673,227.403,201.478
0.047,3.967,4.062,4.062,195.727,227.372,201.508
0.048,4.047,4.059,4.059,195.788,227.341,201.547
0.050,4.135,4.057,4.057,195.858,227.311,201.593
0.051,4.231,4.056,4.056,195.933,227.285,201.645
0.052,4.331,4.057,4.057,196.015,227.264,201.700
0.054,4.436,4.059,4.059,196.102,227.251,201.757
0.055,4.544,4.061,4.061,196.194,227.247,201.812
0.056,4.653,4.063,4.063,196.290,227.254,201.865
0.058,4.766,4.066,4.066,196.390,227.274,201.914
0.059,4.882,4.068,4.068,196.493,227.303,201.958
0.060,5.003,4.069,4.069,196.601,227.337,202.000
0.061,5.126,4.069,4.069,196.713,227.369,202.042
0.063,5.254,4.069,4.069,196.831,227.395,202.083
0.064,5.385,4.070,4.070,196.954,227.409,202.126
0.065,5.523,4.074,4.074,197.084,227.407,202.171
0.067,5.670,4.082,4.082,197.221,227.384,202.221
0.068,5.832,4.096,4.096,197.364,227.335,202.277
0.069,6.015,4.118,4.118,197.516,227.253,202.339
0.071,6.226,4.148,4.148,197.676,227.135,202.409
0.072,6.469,4.188,4.188,197.844,226.978,202.489
0.073,6.740,4.238,4.238,198.017,226.788,202.575
0.075,7.033,4.295,4.295,198.192,226.573,202.666
0.076,7.340,4.357,4.357,198.368,226.338,202.760
0.077,7.654,4.423,4.423,198.540,226.092,202.854
0.078,7.969,4.491,4.491,198.705,225.842,202.948
0.080,8.275,4.560,4.560,198.862,225.595,203.037
0.081,8.565,4.627,4.627,199.007,225.358,203.122
0.082,8.831,4.690,4.690,199.136,225.139,203.198
0.084,9.066,4.750,4.750,199.248,224.943,203.265
0.085,9.261,4.806,4.806,199.339,224.780,203.320
0.086,9.413,4.856,4.856,199.409,224.651,203.362
0.088,9.527,4.900,4.900,199.459,224.554,203.393
0.089,9.607,4.937,4.937,199.493,224.485,203.414
0.090,9.657,4.967,4.967,199.511,224.440,203.426
0.092,9.682,4.988,4.988,199.517,224.415,203.431
0.093,9.690,5.001,5.001,199.514,224.408,203.430
0.094,9.705,5.008,5.008,199.502,224.415,203.425
0.095,9.730,5.008,5.008,199.486,224.431,203.416
0.097,9.761,5.005,5.005,199.466,224.454,203.406
0.098,9.796,4.999,4.999,199.446,224.480,203.395
0.099,9.828,4.991,4.991,199.428,224.505,203.385
0.101,9.856,4.982,4.982,199.413,224.526,203.377
0.102,9.877,4.974,4.974,199.401,224.543,203.371
0.103,9.891,4.969,4.969,199.393,224.553,203.367
0.105,9.895,4.966,4.966,199.389,224.555,203.365
0.106,9.903,4.968,4.968,199.389,224.547,203.367
0.107,9.924,4.976,4.976,199.394,224.528,203.371
0.108,9.959,4.990,4.990,199.405,224.495,203.379
0.110,10.011,5.012,5.012,199.421,224.448,203.390
0.111,10.080,5.043,5.043,199.443,224.384,203.406
0.112,10.169,5.083,5.083,199.471,224.302,203.425
0.114,10.278,5.131,5.131,199.506,224.201,203.449
0.115,10.405,5.185,5.185,199.546,224.084,203.477
0.116,10.545,5.242,5.242,199.590,223.954,203.506
0.118,10.693,5.300,5.300,199.636,223.817,203.535
0.119,10.844,5.357,5.357,199.684,223.676,203.563
0.120,10.993,5.410,5.410,199.730,223.537,203.589
0.122,11.136,5.457,5.457,199.774,223.403,203.610
0.123,11.266,5.498,5.498,199.815,223.280,203.625
0.124,11.381,5.532,5.532,199.850,223.171,203.634
0.125,11.476,5.561,5.561,199.878,223.080,203.633
0.127,11.546,5.586,5.586,199.897,223.014,203.622
0.128,11.593,5.606,5.606,199.908,222.973,203.601
0.129,11.627,5.625,5.625,199.910,222.956,203.572
0.131,11.660,5.641,5.641,199.907,222.955,203.539
0.132,11.694,5.656,5.656,199.899,222.968,203.508
0.133,11.729,5.670,5.670,199.890,222.988,203.481
0.135,11.759,5.683,5.683,199.881,223.011,203.464
0.136,11.782,5.693,5.693,199.873,223.033,203.460
0.137,11.802,5.700,5.700,199.870,223.047,203.474
0.139,11.837,5.702,5.702,199.873,223.049,203.510
0.140,11.902,5.700,5.700,199.883,223.034,203.571
0.141,12.002,5.692,5.692,199.904,222.997,203.662
0.142,12.142,5.678,5.678,199.936,222.936,203.785
0.144,12.317,5.659,5.659,199.976,222.855,203.933
0.145,12.518,5.638,5.638,200.025,222.757,204.103
0.146,12.740,5.615,5.615,200.080,222.646,204.287
0.148,12.975,5.594,5.594,200.139,222.527,204.481
0.149,13.216,5.577,5.577,200.200,222.403,204.678
0.150,13.457,5.565,5.565,200.263,222.278,204.874
0.152,13.690,5.561,5.561,200.325,222.156,205.063
0.153,13.908,5.566,5.566,200.384,222.041,205.238
0.154,14.105,5.578,5.578,200.440,221.937,205.396
0.156,14.273,5.596,5.596,200.490,221.848,205.529
0.157,14.410,5.617,5.617,200.534,221.775,205.636
0.158,14.519,5.640,5.640,200.571,221.717,205.720
0.159,14.602,5.662,5.662,200.603,221.672,205.783
0.161,14.662,5.682,5.682,200.630,221.640,205.826
0.162,14.702,5.697,5.697,200.652,221.619,205.852
0.163,14.726,5.707,5.707,200.670,221.607,205.863
0.165,14.740,5.712,5.712,200.684,221.603,205.861
0.166,14.756,5.714,5.714,200.694,221.606,205.849
0.167,14.780,5.713,5.713,200.701,221.615,205.828
0.169,14.809,5.709,5.709,200.705,221.627,205.801
0.170,14.844,5.704,5.704,200.706,221.641,205.771
0.171,14.879,5.699,5.699,200.706,221.657,205.739
0.173,14.912,5.693,5.693,200.705,221.672,205.710
0.174,14.939,5.688,5.688,200.704,221.686,205.686
0.175,14.956,5.684,5.684,200.703,221.695,205.673
0.176,14.961,5.680,5.680,200.704,221.700,205.671
0.178,14.976,5.676,5.676,200.708,221.698,205.687
0.179,15.013,5.674,5.674,200.714,221.689,205.722
0.180,15.075,5.672,5.672,200.724,221.669,205.780
0.182,15.166,5.671,5.671,200.740,221.639,205.864
0.183,15.291,5.670,5.670,200.760,221.596,205.979
0.184,15.450,5.671,5.671,200.787,221.539,206.126
0.186,15.640,5.671,5.671,200.819,221.471,206.300
0.187,15.854,5.672,5.672,200.855,221.392,206.496
0.188,16.085,5.673,5.673,200.894,221.305,206.706
0.190,16.326,5.674,5.674,200.936,221.213,206.924
0.191,16.569,5.674,5.674,200.978,221.117,207.144
0.192,16.809,5.673,5.673,201.020,221.019,207.359
0.193,17.038,5.672,5.672,201.060,220.922,207.563
0.195,17.250,5.671,5.671,201.098,220.827,207.748
0.196,17.437,5.671,5.671,201.132,220.738,207.909
0.197,17.594,5.671,5.671,201.161,220.655,208.039
0.199,17.718,5.674,5.674,201.185,220.581,208.135
0.200,17.812,5.679,5.679,201.203,220.516,208.202
0.201,17.884,5.687,5.687,201.217,220.462,208.247
0.203,17.937,5.698,5.698,201.226,220.419,208.277
0.204,17.975,5.713,5.713,201.231,220.388,208.297
0.205,18.001,5.730,5.730,201.232,220.369,208.316
0.207,18.025,5.747,5.747,201.231,220.363,208.339
0.208,18.060,5.764,5.764,201.226,220.371,208.372
0.209,18.116,5.779,5.779,201.220,220.394,208.424
0.210,18.202,5.791,5.791,201.211,220.432,208.500
0.212,18.322,5.798,5.798,201.201,220.486,208.606
0.213,18.477,5.799,5.799,201.191,220.553,208.746
0.214,18.659,5.795,5.795,201.185,220.626,208.913
0.216,18.861,5.784,5.784,201.186,220.695,209.103
0.217,19.077,5.769,5.768,201.197,220.754,209.310
0.218,19.302,5.748,5.748,201.221,220.795,209.530
0.220,19.533,5.723,5.723,201.262,220.808,209.757
0.221,19.770,5.694,5.694,201.324,220.787,209.985
0.222,20.019,5.662,5.662,201.409,220.723,210.210
0.224,20.289,5.626,5.627,201.521,220.608,210.427
0.225,20.591,5.590,5.590,201.663,220.435,210.630
0.226,20.941,5.555,5.556,201.839,220.195,210.814
0.227,21.342,5.524,5.524,202.046,219.893,210.978
0.229,21.787,5.499,5.499,202.278,219.542,211.123
0.230,22.267,5.482,5.482,202.529,219.154,211.251
0.231,22.769,5.475,5.476,202.793,218.743,211.364
0.233,23.281,5.482,5.482,203.065,218.320,211.463
0.234,23.790,5.502,5.501,203.337,217.898,211.550
0.235,24.282,5.532,5.531,203.604,217.492,211.626
0.237,24.745,5.570,5.568,203.859,217.112,211.693
0.238,25.163,5.612,5.610,204.097,216.773,211.752
0.239,25.525,5.656,5.654,204.312,216.487,211.806
0.241,25.819,5.697,5.696,204.498,216.264,211.854
0.242,26.050,5.734,5.734,204.656,216.102,211.899
0.243,26.228,5.764,5.764,204.789,215.992,211.941
0.244,26.364,5.785,5.787,204.901,215.925,211.980
0.246,26.468,5.800,5.804,204.993,215.893,212.017
0.247,26.553,5.811,5.816,205.070,215.886,212.052
0.248,26.626,5.820,5.825,205.134,215.897,212.087
0.250,26.693,5.828,5.834,205.188,215.917,212.120
0.251,26.755,5.839,5.843,205.236,215.936,212.154
0.252,26.811,5.853,5.854,205.280,215.946,212.188
0.254,26.868,5.873,5.869,205.324,215.939,212.224
0.255,26.935,5.898,5.888,205.370,215.909,212.260
0.256,27.015,5.924,5.909,205.420,215.858,212.299
0.258,27.109,5.951,5.931,205.473,215.793,212.339
0.259,27.212,5.975,5.953,205.531,215.718,212.381
0.260,27.322,5.994,5.975,205.594,215.640,212.425
0.261,27.435,6.006,5.994,205.664,215.563,212.471
0.263,27.549,6.009,6.011,205.740,215.493,212.519
0.264,27.663,6.001,6.023,205.823,215.435,212.569
0.265,27.776,5.984,6.030,205.915,215.395,212.622
0.267,27.892,5.959,6.031,206.016,215.377,212.677
0.268,28.017,5.927,6.026,206.126,215.388,212.735
0.269,28.157,5.890,6.013,206.245,215.429,212.795
0.271,28.312,5.849,5.991,206.371,215.496,212.856
0.272,28.480,5.807,5.960,206.501,215.584,212.917
0.273,28.659,5.765,5.920,206.633,215.687,212.978
0.275,28.842,5.723,5.869,206.764,215.802,213.037
0.276,29.027,5.683,5.813,206.891,215.923,213.094
0.277,29.206,5.645,5.752,207.012,216.044,213.146
0.278,29.376,5.610,5.691,207.125,216.162,213.195
0.280,29.530,5.578,5.632,207.225,216.270,213.237
0.281,29.663,5.549,5.578,207.312,216.365,213.273
0.282,29.771,5.525,5.532,207.383,216.441,213.302
0.284,29.852,5.506,5.497,207.438,216.497,213.323
0.285,29.911,5.491,5.473,207.479,216.537,213.337
0.286,29.953,5.480,5.457,207.510,216.564,213.346
0.288,29.984,5.470,5.447,207.535,216.580,213.351
0.289,30.007,5.462,5.442,207.556,216.590,213.353
0.290,30.028,5.453,5.439,207.576,216.597,213.354
0.292,30.051,5.443,5.436,207.598,216.603,213.353
0.293,30.081,5.431,5.431,207.627,216.612,213.352
0.294,30.121,5.416,5.422,207.664,216.627,213.353
0.295,30.175,5.398,5.408,207.712,216.651,213.357
0.297,30.249,5.377,5.391,207.776,216.688,213.364
0.298,30.341,5.354,5.371,207.853,216.736,213.375
0.299,30.448,5.329,5.349,207.941,216.795,213.388
0.301,30.566,5.303,5.324,208.038,216.861,213.405
0.302,30.692,5.277,5.297,208.141,216.933,213.423
0.303,30.823,5.250,5.270,208.246,217.008,213.442
0.305,30.956,5.223,5.242,208.352,217.084,213.463
0.306,31.085,5.197,5.214,208.456,217.160,213.483
0.307,31.210,5.173,5.187,208.554,217.232,213.504
0.308,31.325,5.150,5.162,208.645,217.300,213.524
0.310,31.427,5.131,5.139,208.725,217.361,213.542
0.311,31.514,5.115,5.120,208.793,217.413,213.559
0.312,31.587,5.103,5.105,208.850,217.456,213.574
0.314,31.647,5.096,5.094,208.897,217.492,213.586
0.315,31.698,5.093,5.089,208.936,217.522,213.596
0.316,31.740,5.093,5.086,208.970,217.546,213.604
0.318,31.776,5.094,5.086,208.999,217.566,213.609
0.319,31.808,5.095,5.086,209.027,217.583,213.610
0.320,31.840,5.093,5.086,209.055,217.597,213.609
0.322,31.872,5.089,5.084,209.084,217.611,213.604
0.323,31.909,5.079,5.078,209.117,217.623,213.596
0.324,31.951,5.063,5.068,209.156,217.637,213.584
0.325,32.001,5.042,5.053,209.201,217.652,213.569
0.327,32.057,5.017,5.037,209.251,217.668,213.551
0.328,32.116,4.992,5.019,209.304,217.686,213.532
0.329,32.176,4.968,5.003,209.358,217.704,213.513
0.331,32.236,4.947,4.988,209.412,217.723,213.496
0.332,32.292,4.932,4.978,209.463,217.742,213.481
0.333,32.343,4.926,4.972,209.509,217.761,213.470
0.335,32.388,4.928,4.973,209.549,217.780,213.464
0.336,32.425,4.937,4.978,209.581,217.799,213.465
0.337,32.455,4.949,4.983,209.603,217.817,213.474
0.339,32.481,4.960,4.987,209.613,217.835,213.491
0.340,32.512,4.967,4.986,209.613,217.852,213.516
0.341,32.546,4.966,4.977,209.610,217.872,213.544
0.342,32.582,4.953,4.957,209.611,217.897,213.569
0.344,32.620,4.925,4.924,209.622,217.929,213.587
0.345,32.671,4.880,4.876,209.650,217.971,213.593
0.346,32.748,4.821,4.815,209.703,218.025,213.582
0.348,32.862,4.749,4.743,209.788,218.094,213.549
0.349,33.023,4.668,4.662,209.910,218.180,213.489
0.350,33.242,4.580,4.576,210.079,218.285,213.397
0.352,33.527,4.489,4.487,210.299,218.412,213.268
0.353,33.887,4.396,4.395,210.578,218.563,213.098
0.354,34.317,4.305,4.305,210.911,218.736,212.888
0.356,34.803,4.217,4.218,211.287,218.924,212.646
0.357,35.329,4.135,4.137,211.696,219.123,212.379
0.358,35.883,4.061,4.063,212.125,219.326,212.094
0.359,36.450,3.997,3.998,212.564,219.527,211.797
0.361,37.014,3.945,3.946,213.000,219.720,211.496
0.362,37.563,3.908,3.908,213.424,219.901,211.198
0.363,38.081,3.886,3.887,213.823,220.063,210.909
0.365,38.556,3.883,3.883,214.186,220.200,210.637
0.366,38.971,3.896,3.896,214.503,220.306,210.389
0.367,39.318,3.922,3.922,214.762,220.378,210.171
0.369,39.600,3.958,3.957,214.968,220.416,209.982
0.370,39.826,4.000,3.999,215.124,220.426,209.820
0.371,40.005,4.045,4.044,215.238,220.411,209.682
0.373,40.148,4.089,4.089,215.316,220.377,209.566
0.374,40.267,4.130,4.130,215.364,220.329,209.470
0.375,40.369,4.166,4.166,215.387,220.269,209.390
0.376,40.461,4.195,4.196,215.392,220.204,209.324
0.378,40.547,4.219,4.220,215.386,220.138,209.270
0.379,40.625,4.238,4.240,215.373,220.075,209.225
0.380,40.694,4.253,4.255,215.361,220.020,209.187
0.382,40.750,4.265,4.267,215.353,219.975,209.153
0.383,40.795,4.274,4.275,215.351,219.942,209.123
0.384,40.832,4.281,4.280,215.354,219.917,209.096
0.386,40.862,4.286,4.284,215.360,219.900,209.072
0.387,40.888,4.289,4.285,215.370,219.890,209.050
0.388,40.912,4.291,4.285,215.382,219.884,209.031
0.390,40.936,4.291,4.285,215.397,219.881,209.012
0.391,40.960,4.290,4.284,215.414,219.881,208.995
0.392,40.985,4.288,4.283,215.431,219.882,208.978
0.393,41.009,4.285,4.284,215.450,219.881,208.961
0.395,41.034,4.281,4.285,215.468,219.879,208.943
0.396,41.060,4.277,4.287,215.485,219.873,208.925
0.397,41.088,4.272,4.290,215.503,219.864,208.905
0.399,41.119,4.267,4.292,215.520,219.852,208.884
0.400,41.154,4.261,4.293,215.538,219.835,208.859
0.401,41.193,4.254,4.293,215.558,219.815,208.831
0.403,41.238,4.248,4.290,215.578,219.790,208.799
0.404,41.290,4.241,4.285,215.599,219.761,208.762
0.405,41.348,4.234,4.276,215.623,219.728,208.721
0.407,41.415,4.227,4.265,215.649,219.689,208.673
0.408,41.490,4.221,4.252,215.677,219.645,208.619
0.409,41.574,4.215,4.239,215.708,219.597,208.558
0.410,41.667,4.212,4.227,215.741,219.543,208.490
0.412,41.767,4.209,4.218,215.778,219.484,208.417
0.413,41.874,4.209,4.212,215.817,219.422,208.339
0.414,41.986,4.212,4.211,215.859,219.358,208.258
0.416,42.102,4.217,4.216,215.903,219.290,208.175
0.417,42.220,4.224,4.225,215.950,219.222,208.090
0.418,42.340,4.232,4.237,215.999,219.152,208.006
0.420,42.460,4.242,4.251,216.050,219.082,207.923
0.421,42.580,4.252,4.266,216.104,219.013,207.842
0.422,42.697,4.261,4.280,216.159,218.945,207.764
0.424,42.811,4.269,4.293,216.217,218.879,207.691
0.425,42.922,4.276,4.303,216.277,218.814,207.623
0.426,43.033,4.282,4.311,216.343,218.751,207.561
0.427,43.143,4.287,4.317,216.414,218.687,207.505
0.429,43.256,4.292,4.323,216.492,218.623,207.456
0.430,43.372,4.298,4.330,216.579,218.558,207.414
0.431,43.495,4.305,4.340,216.677,218.492,207.379
0.433,43.627,4.316,4.354,216.786,218.423,207.353
0.434,43.770,4.330,4.374,216.908,218.351,207.335
0.435,43.926,4.348,4.400,217.045,218.275,207.327
0.437,44.099,4.371,4.433,217.197,218.195,207.328
0.438,44.288,4.397,4.472,217.366,218.110,207.338
0.439,44.493,4.427,4.516,217.549,218.021,207.356
0.441,44.707,4.459,4.564,217.743,217.930,207.380
0.442,44.929,4.494,4.616,217.942,217.838,207.406
0.443,45.153,4.531,4.669,218.145,217.746,207.432
0.444,45.376,4.570,4.725,218.347,217.654,207.456
0.446,45.594,4.610,4.781,218.545,217.566,207.475
0.447,45.802,4.651,4.836,218.735,217.481,207.487
0.448,45.998,4.692,4.891,218.913,217.401,207.490
0.450,46.177,4.734,4.944,219.076,217.328,207.480
0.451,46.337,4.776,4.993,219.221,217.262,207.456
0.452,46.480,4.817,5.039,219.345,217.205,207.416
0.454,46.609,4.858,5.080,219.452,217.155,207.364
0.455,46.729,4.899,5.116,219.545,217.111,207.301
0.456,46.843,4.938,5.146,219.628,217.074,207.232
0.458,46.954,4.977,5.172,219.705,217.041,207.160
0.459,47.062,5.016,5.197,219.779,217.013,207.086
0.460,47.168,5.055,5.223,219.854,216.988,207.016
0.461,47.273,5.095,5.253,219.934,216.966,206.951
0.463,47.380,5.135,5.287,220.022,216.945,206.894
0.464,47.491,5.176,5.330,220.122,216.926,206.850
0.465,47.612,5.219,5.382,220.237,216.906,206.820
0.467,47.745,5.263,5.443,220.368,216.886,206.806
0.468,47.890,5.307,5.510,220.512,216.865,206.805
0.469,48.043,5.353,5.580,220.664,216.845,206.815
0.471,48.203,5.399,5.649,220.820,216.825,206.835
0.472,48.364,5.445,5.714,220.978,216.806,206.861
0.473,48.523,5.491,5.772,221.133,216.788,206.892
0.475,48.676,5.537,5.820,221.282,216.770,206.926
0.476,48.820,5.581,5.854,221.420,216.754,206.959
0.477,48.949,5.624,5.876,221.545,216.739,206.991
0.478,49.061,5.665,5.887,221.652,216.726,207.019
0.480,49.151,5.702,5.892,221.739,216.715,207.041
0.481,49.219,5.735,5.891,221.804,216.706,207.057
0.482,49.269,5.762,5.887,221.852,216.697,207.067
0.484,49.302,5.784,5.884,221.885,216.690,207.072
0.485,49.324,5.799,5.882,221.905,216.683,207.075
0.486,49.336,5.806,5.884,221.915,216.676,207.075
0.488,49.345,5.807,5.890,221.919,216.669,207.073
0.489,49.353,5.804,5.898,221.918,216.661,207.071
0.490,49.363,5.796,5.907,221.916,216.651,207.070
0.492,49.375,5.786,5.918,221.914,216.640,207.070
0.493,49.389,5.775,5.928,221.917,216.626,207.072
0.494,49.408,5.763,5.937,221.927,216.610,207.078
0.495,49.436,5.753,5.945,221.944,216.590,207.087
0.497,49.473,5.746,5.950,221.970,216.567,207.099
0.498,49.520,5.742,5.955,222.005,216.540,207.113
0.499,49.578,5.742,5.960,222.051,216.508,207.129
0.501,49.649,5.747,5.965,222.109,216.471,207.146
0.502,49.733,5.759,5.973,222.179,216.429,207.164
0.503,49.831,5.777,5.985,222.263,216.380,207.183
0.505,49.945,5.802,6.000,222.361,216.325,207.201
0.506,50.075,5.837,6.021,222.474,216.263,207.219
0.507,50.223,5.878,6.047,222.604,216.193,207.236
0.508,50.388,5.925,6.077,222.749,216.116,207.251
0.510,50.566,5.974,6.109,222.906,216.033,207.265
0.511,50.752,6.023,6.143,223.069,215.946,207.278
0.512,50.941,6.070,6.176,223.235,215.856,207.288
0.514,51.127,6.113,6.208,223.398,215.766,207.297
0.515,51.306,6.149,6.238,223.553,215.677,207.303
0.516,51.473,6.176,6.264,223.695,215.591,207.307
0.518,51.622,6.195,6.287,223.821,215.510,207.309
0.519,51.749,6.207,6.307,223.924,215.436,207.308
0.520,51.850,6.216,6.326,224.000,215.369,207.304
0.522,51.923,6.222,6.344,224.045,215.313,207.297
0.523,51.970,6.227,6.361,224.058,215.268,207.288
0.524,52.007,6.232,6.379,224.047,215.234,207.280
0.525,52.042,6.241,6.398,224.021,215.211,207.275
0.527,52.078,6.252,6.419,223.987,215.199,207.276
0.528,52.112,6.266,6.438,223.954,215.197,207.286
0.529,52.144,6.279,6.454,223.931,215.206,207.307
0.531,52.185,6.290,6.465,223.926,215.225,207.342
0.532,52.247,6.297,6.468,223.946,215.255,207.393
