"T","Distance","Radius","FreeRadius","X","Y","Z"
0.000,0.000,3.308,3.308,306.177,276.349,279.008
0.001,0.058,3.339,3.339,306.177,276.301,279.041
0.003,0.117,3.371,3.371,306.178,276.253,279.074
0.004,0.175,3.403,3.403,306.179,276.205,279.107
0.005,0.233,3.434,3.434,306.180,276.158,279.140
0.006,0.290,3.465,3.465,306.180,276.110,279.173
0.008,0.348,3.496,3.496,306.181,276.064,279.206
0.009,0.404,3.527,3.527,306.181,276.017,279.238
0.010,0.461,3.557,3.557,306.181,275.971,279.271
0.012,0.516,3.587,3.587,306.181,275.926,279.303
0.013,0.571,3.616,3.616,306.181,275.882,279.335
0.014,0.625,3.645,3.645,306.180,275.838,279.367
0.015,0.679,3.672,3.672,306.180,275.795,279.399
0.017,0.731,3.699,3.699,306.179,275.753,279.431
0.018,0.783,3.724,3.724,306.180,275.711,279.462
0.019,0.835,3.748,3.748,306.181,275.670,279.493
0.020,0.886,3.771,3.771,306.184,275.629,279.523
0.022,0.937,3.793,3.793,306.189,275.588,279.553
0.023,0.988,3.813,3.813,306.196,275.547,279.583
0.024,1.039,3.832,3.832,306.205,275.507,279.612
0.026,1.090,3.851,3.851,306.218,275.465,279.640
0.027,1.143,3.869,3.869,306.234,275.424,279.668
0.028,1.197,3.888,3.888,306.254,275.382,279.695
0.029,1.252,3.907,3.907,306.277,275.339,279.722
0.031,1.310,3.926,3.926,306.304,275.296,279.749
0.032,1.369,3.947,3.947,306.333,275.253,279.777
0.033,1.430,3.968,3.968,306.365,275.209,279.807
0.035,1.493,3.990,3.990,306.397,275.166,279.838
0.036,1.558,4.014,4.014,306.431,275.122,279.873
0.037,1.625,4.038,4.038,306.464,275.079,279.910
0.038,1.693,4.064,4.064,306.498,275.035,279.952
0.040,1.764,4.091,4.091,306.530,274.992,279.997
0.041,1.837,4.119,4.119,306.561,274.950,280.048
0.042,1.913,4.148,4.148,306.590,274.907,280.104
0.043,1.992,4.178,4.178,306.617,274.866,280.165
0.045,2.072,4.208,4.208,306.643,274.825,280.230
0.046,2.154,4.239,4.239,306.667,274.784,280.297
0.047,2.236,4.270,4.270,306.690,274.744,280.364
0.049,2.318,4.300,4.300,306.713,274.705,280.432
0.050,2.398,4.330,4.330,306.736,274.665,280.498
0.051,2.476,4.360,4.360,306.758,274.627,280.562
0.052,2.551,4.388,4.388,306.781,274.589,280.623
0.054,2.622,4.414,4.414,306.805,274.551,280.678
0.055,2.688,4.439,4.439,306.829,274.514,280.727
0.056,2.750,4.462,4.462,306.855,274.477,280.770
0.058,2.808,4.482,4.482,306.880,274.441,280.806
0.059,2.861,4.500,4.500,306.904,274.406,280.839
0.060,2.910,4.514,4.514,306.926,274.373,280.868
0.061,2.956,4.525,4.525,306.945,274.341,280.895
0.063,2.997,4.534,4.534,306.958,274.312,280.921
0.064,3.036,4.540,4.540,306.966,274.285,280.947
0.065,3.073,4.546,4.546,306.968,274.261,280.975
0.066,3.111,4.553,4.553,306.961,274.239,281.006
0.068,3.153,4.561,4.561,306.944,274.222,281.041
0.069,3.203,4.572,4.572,306.918,274.208,281.081
0.070,3.261,4.586,4.586,306.883,274.196,281.125
0.072,3.324,4.605,4.605,306.844,274.187,281.174
0.073,3.389,4.628,4.628,306.806,274.176,281.225
0.074,3.452,4.653,4.653,306.774,274.163,281.277
0.075,3.510,4.678,4.678,306.752,274.146,281.329
0.077,3.566,4.700,4.700,306.746,274.122,281.379
0.078,3.624,4.718,4.718,306.761,274.091,281.426
0.079,3.696,4.731,4.731,306.801,274.049,281.468
0.081,3.791,4.735,4.735,306.872,273.996,281.505
0.082,3.920,4.730,4.730,306.977,273.929,281.533
0.083,4.088,4.716,4.716,307.123,273.846,281.554
0.084,4.294,4.696,4.696,307.305,273.750,281.566
0.086,4.532,4.672,4.672,307.517,273.643,281.572
0.087,4.794,4.645,4.645,307.753,273.529,281.574
0.088,5.074,4.619,4.619,308.006,273.410,281.573
0.090,5.365,4.594,4.594,308.271,273.289,281.571
0.091,5.659,4.575,4.575,308.540,273.171,281.569
0.092,5.949,4.561,4.561,308.806,273.057,281.570
0.093,6.228,4.554,4.554,309.064,272.951,281.575
0.095,6.489,4.553,4.553,309.308,272.856,281.586
0.096,6.726,4.556,4.556,309.529,272.776,281.605
0.097,6.933,4.565,4.565,309.725,272.711,281.632
0.098,7.113,4.577,4.577,309.894,272.663,281.668
0.100,7.269,4.593,4.593,310.041,272.627,281.709
0.101,7.404,4.612,4.612,310.165,272.603,281.755
0.102,7.522,4.633,4.633,310.271,272.589,281.805
0.104,7.625,4.655,4.655,310.360,272.583,281.856
0.105,7.715,4.678,4.678,310.434,272.583,281.908
0.106,7.795,4.702,4.702,310.496,272.588,281.959
0.107,7.866,4.724,4.724,310.547,272.594,282.007
0.109,7.928,4.745,4.745,310.590,272.602,282.051
0.110,7.981,4.763,4.763,310.626,272.608,282.089
0.111,8.027,4.779,4.779,310.659,272.612,282.122
0.113,8.066,4.791,4.791,310.688,272.614,282.148
0.114,8.100,4.799,4.799,310.713,272.614,282.171
0.115,8.130,4.805,4.805,310.736,272.614,282.189
0.116,8.156,4.809,4.809,310.757,272.614,282.205
0.118,8.180,4.811,4.811,310.777,272.615,282.219
0.119,8.204,4.812,4.812,310.796,272.616,282.232
0.120,8.227,4.813,4.813,310.815,272.619,282.245
0.121,8.252,4.813,4.813,310.835,272.624,282.259
0.123,8.279,4.813,4.813,310.856,272.632,282.275
0.124,8.310,4.813,4.813,310.878,272.643,282.293
0.125,8.344,4.812,4.812,310.902,272.656,282.314
0.127,8.380,4.809,4.809,310.927,272.671,282.335
0.128,8.414,4.803,4.803,310.951,272.686,282.355
0.129,8.446,4.795,4.795,310.975,272.698,282.372
0.130,8.474,4.783,4.783,310.997,272.708,282.386
0.132,8.495,4.766,4.766,311.016,272.712,282.394
0.133,8.512,4.746,4.746,311.032,272.711,282.395
0.134,8.528,4.723,4.723,311.044,272.702,282.388
0.136,8.555,4.700,4.700,311.051,272.684,282.370
0.137,8.596,4.678,4.678,311.052,272.655,282.341
0.138,8.654,4.660,4.660,311.047,272.615,282.299
0.139,8.723,4.648,4.648,311.037,272.567,282.249
0.141,8.795,4.643,4.643,311.026,272.518,282.198
0.142,8.861,4.648,4.648,311.016,272.473,282.150
0.143,8.913,4.662,4.662,311.010,272.437,282.113
0.145,8.943,4.681,4.681,311.010,272.416,282.093
0.146,8.953,4.702,4.702,311.020,272.416,282.095
0.147,8.998,4.720,4.720,311.042,272.442,282.125
0.148,9.092,4.734,4.734,311.078,272.499,282.191
0.150,9.245,4.738,4.738,311.131,272.595,282.297
0.151,9.464,4.729,4.729,311.205,272.733,282.450
0.152,9.752,4.704,4.704,311.300,272.916,282.652
0.153,10.098,4.664,4.664,311.412,273.136,282.894
0.155,10.488,4.611,4.611,311.536,273.385,283.167
0.156,10.907,4.550,4.550,311.669,273.654,283.460
0.157,11.342,4.487,4.487,311.806,273.933,283.764
0.159,11.778,4.424,4.424,311.942,274.214,284.068
0.160,12.202,4.366,4.366,312.074,274.489,284.363
0.161,12.599,4.317,4.317,312.195,274.748,284.638
0.162,12.955,4.282,4.282,312.304,274.982,284.884
0.164,13.257,4.261,4.261,312.393,275.183,285.090
0.165,13.490,4.251,4.251,312.460,275.341,285.248
0.166,13.653,4.251,4.251,312.505,275.456,285.355
0.168,13.754,4.259,4.259,312.529,275.531,285.418
0.169,13.805,4.271,4.271,312.539,275.572,285.447
0.170,13.818,4.286,4.286,312.537,275.584,285.448
0.171,13.840,4.302,4.302,312.529,275.572,285.431
0.173,13.882,4.316,4.316,312.517,275.543,285.403
0.174,13.935,4.329,4.329,312.506,275.501,285.372
0.175,13.991,4.339,4.339,312.501,275.452,285.346
0.176,14.045,4.347,4.347,312.504,275.400,285.334
0.178,14.096,4.354,4.354,312.520,275.352,285.343
0.179,14.161,4.358,4.358,312.554,275.311,285.381
0.180,14.250,4.361,4.361,312.603,275.280,285.448
0.182,14.363,4.361,4.361,312.667,275.257,285.539
0.183,14.498,4.360,4.361,312.742,275.240,285.650
0.184,14.652,4.358,4.358,312.827,275.229,285.777
0.185,14.819,4.352,4.353,312.918,275.222,285.917
0.187,14.995,4.345,4.345,313.014,275.218,286.065
0.188,15.176,4.335,4.335,313.113,275.216,286.216
0.189,15.356,4.322,4.322,313.210,275.214,286.367
0.191,15.531,4.305,4.305,313.306,275.212,286.514
0.192,15.696,4.286,4.286,313.396,275.208,286.652
0.193,15.848,4.263,4.263,313.479,275.201,286.779
0.194,15.990,4.238,4.238,313.558,275.189,286.897
0.196,16.126,4.215,4.215,313.634,275.170,287.008
0.197,16.261,4.196,4.196,313.709,275.143,287.116
0.198,16.399,4.183,4.183,313.787,275.104,287.224
0.199,16.546,4.179,4.179,313.869,275.052,287.335
0.201,16.707,4.187,4.187,313.959,274.986,287.451
0.202,16.887,4.208,4.208,314.057,274.903,287.576
0.203,17.090,4.246,4.246,314.167,274.801,287.714
0.205,17.322,4.297,4.297,314.291,274.678,287.866
0.206,17.586,4.361,4.362,314.431,274.533,288.036
0.207,17.882,4.435,4.436,314.588,274.365,288.224
0.208,18.202,4.517,4.518,314.756,274.181,288.425
0.210,18.538,4.605,4.605,314.932,273.985,288.633
0.211,18.880,4.697,4.697,315.110,273.783,288.843
0.212,19.219,4.790,4.790,315.286,273.581,289.051
0.214,19.547,4.882,4.882,315.456,273.383,289.249
0.215,19.854,4.972,4.971,315.614,273.195,289.433
0.216,20.132,5.057,5.056,315.757,273.022,289.598
0.217,20.371,5.136,5.134,315.879,272.870,289.737
0.219,20.564,5.206,5.204,315.977,272.745,289.846
0.220,20.702,5.265,5.263,316.045,272.651,289.920
0.221,20.786,5.311,5.310,316.085,272.588,289.959
0.223,20.828,5.343,5.343,316.101,272.551,289.972
0.224,20.845,5.359,5.361,316.100,272.537,289.964
0.225,20.871,5.363,5.367,316.085,272.540,289.942
0.226,20.911,5.358,5.364,316.062,272.556,289.914
0.228,20.957,5.349,5.356,316.037,272.582,289.885
0.229,21.000,5.337,5.345,316.013,272.611,289.864
0.230,21.035,5.328,5.334,315.997,272.641,289.855
0.231,21.063,5.324,5.327,315.994,272.665,289.867
0.233,21.107,5.329,5.327,316.007,272.681,289.906
0.234,21.186,5.344,5.335,316.043,272.683,289.977
0.235,21.303,5.368,5.352,316.097,272.673,290.080
0.237,21.451,5.399,5.376,316.167,272.651,290.209
0.238,21.626,5.434,5.407,316.248,272.617,290.361
0.239,21.823,5.472,5.445,316.335,272.574,290.532
0.240,22.035,5.511,5.489,316.424,272.523,290.717
0.242,22.258,5.548,5.538,316.512,272.464,290.913
0.243,22.486,5.583,5.592,316.594,272.398,291.116
0.244,22.714,5.613,5.650,316.665,272.327,291.321
0.246,22.938,5.640,5.711,316.721,272.252,291.524
0.247,23.155,5.666,5.772,316.759,272.174,291.722
0.248,23.360,5.692,5.833,316.776,272.095,291.911
0.249,23.556,5.719,5.891,316.775,272.014,292.090
0.251,23.742,5.748,5.945,316.759,271.935,292.257
0.252,23.916,5.780,5.994,316.732,271.858,292.411
0.253,24.078,5.817,6.036,316.698,271.785,292.551
0.254,24.225,5.859,6.070,316.660,271.718,292.676
0.256,24.354,5.902,6.097,316.622,271.657,292.784
0.257,24.464,5.944,6.119,316.587,271.604,292.874
0.258,24.552,5.984,6.135,316.560,271.561,292.946
0.260,24.615,6.019,6.146,316.543,271.529,292.996
0.261,24.650,6.047,6.154,316.540,271.509,293.026
0.262,24.667,6.064,6.158,316.552,271.502,293.036
0.263,24.688,6.071,6.161,316.572,271.503,293.032
0.265,24.718,6.066,6.161,316.598,271.511,293.019
0.266,24.750,6.055,6.161,316.624,271.522,293.004
0.267,24.779,6.040,6.162,316.647,271.534,292.991
0.269,24.796,6.025,6.163,316.661,271.544,292.986
0.270,24.807,6.014,6.167,316.662,271.549,292.996
0.271,24.841,6.010,6.175,316.646,271.546,293.025
0.272,24.908,6.018,6.186,316.608,271.533,293.079
0.274,25.018,6.039,6.203,316.543,271.507,293.164
0.275,25.177,6.073,6.224,316.449,271.465,293.285
0.276,25.380,6.116,6.247,316.327,271.408,293.437
0.277,25.619,6.164,6.270,316.183,271.340,293.616
0.279,25.884,6.213,6.292,316.024,271.263,293.813
0.280,26.166,6.258,6.310,315.854,271.180,294.022
0.281,26.454,6.298,6.323,315.681,271.095,294.236
0.283,26.739,6.326,6.329,315.511,271.008,294.448
0.284,27.013,6.341,6.327,315.348,270.925,294.651
0.285,27.264,6.343,6.318,315.199,270.847,294.838
0.286,27.485,6.335,6.304,315.070,270.777,295.003
0.288,27.665,6.322,6.289,314.967,270.719,295.139
0.289,27.798,6.305,6.275,314.894,270.673,295.240
0.290,27.887,6.289,6.265,314.848,270.641,295.309
0.292,27.940,6.276,6.262,314.827,270.619,295.352
0.293,27.963,6.270,6.269,314.826,270.607,295.372
0.294,27.980,6.272,6.286,314.841,270.602,295.374
0.295,28.011,6.283,6.314,314.870,270.604,295.362
0.297,28.055,6.300,6.347,314.908,270.611,295.340
0.298,28.107,6.321,6.384,314.952,270.621,295.314
0.299,28.162,6.343,6.420,314.998,270.633,295.286
0.301,28.213,6.366,6.452,315.042,270.646,295.263
0.302,28.257,6.385,6.478,315.081,270.657,295.248
0.303,28.290,6.400,6.494,315.113,270.666,295.243
0.304,28.317,6.409,6.498,315.138,270.673,295.248
0.306,28.341,6.411,6.490,315.158,270.677,295.262
0.307,28.368,6.408,6.474,315.173,270.678,295.284
0.308,28.399,6.399,6.451,315.184,270.676,295.313
0.309,28.434,6.385,6.423,315.192,270.671,295.348
0.311,28.475,6.366,6.392,315.198,270.663,295.387
0.312,28.520,6.343,6.360,315.202,270.651,295.430
0.313,28.569,6.316,6.329,315.206,270.635,295.476
0.315,28.621,6.285,6.302,315.211,270.615,295.524
0.316,28.676,6.252,6.277,315.217,270.590,295.573
0.317,28.732,6.219,6.254,315.225,270.563,295.621
0.318,28.789,6.186,6.233,315.234,270.533,295.669
0.320,28.844,6.155,6.214,315.244,270.503,295.714
0.321,28.896,6.128,6.196,315.256,270.475,295.755
0.322,28.943,6.106,6.179,315.267,270.449,295.792
0.324,28.983,6.090,6.163,315.280,270.426,295.824
0.325,29.016,6.081,6.148,315.292,270.410,295.849
0.326,29.039,6.077,6.133,315.304,270.401,295.867
0.327,29.054,6.077,6.119,315.316,270.400,295.876
0.329,29.069,6.078,6.106,315.328,270.409,295.875
0.330,29.094,6.080,6.094,315.338,270.429,295.864
0.331,29.127,6.079,6.084,315.349,270.456,295.849
0.332,29.161,6.075,6.075,315.359,270.485,295.833
0.334,29.189,6.066,6.067,315.369,270.510,295.825
0.335,29.210,6.049,6.060,315.381,270.526,295.830
0.336,29.236,6.024,6.050,315.393,270.528,295.853
0.338,29.290,5.987,6.034,315.407,270.510,295.902
0.339,29.382,5.939,6.007,315.423,270.467,295.982
0.340,29.521,5.875,5.967,315.442,270.394,296.099
0.341,29.716,5.795,5.909,315.463,270.285,296.259
0.343,29.975,5.698,5.831,315.488,270.136,296.469
0.344,30.300,5.580,5.729,315.516,269.944,296.729
0.345,30.678,5.444,5.603,315.546,269.717,297.031
0.347,31.097,5.297,5.461,315.577,269.465,297.363
0.348,31.541,5.144,5.309,315.609,269.195,297.715
0.349,31.997,4.993,5.154,315.639,268.917,298.075
0.350,32.450,4.850,5.002,315.667,268.640,298.432
0.352,32.887,4.721,4.861,315.693,268.371,298.776
0.353,33.294,4.612,4.738,315.714,268.121,299.096
0.354,33.656,4.531,4.639,315.729,267.897,299.380
0.355,33.959,4.478,4.564,315.738,267.709,299.618
0.357,34.190,4.448,4.513,315.740,267.565,299.799
0.358,34.348,4.436,4.480,315.735,267.467,299.922
0.359,34.445,4.438,4.463,315.726,267.406,299.996
0.361,34.492,4.448,4.459,315.716,267.376,300.032
0.362,34.504,4.463,4.464,315.706,267.371,300.038
0.363,34.523,4.477,4.476,315.701,267.381,300.024
0.364,34.554,4.485,4.490,315.701,267.401,300.000
0.366,34.589,4.488,4.506,315.711,267.423,299.975
0.367,34.620,4.487,4.525,315.733,267.440,299.960
0.368,34.657,4.484,4.545,315.769,267.445,299.963
0.370,34.720,4.482,4.567,315.822,267.429,299.995
0.371,34.828,4.481,4.592,315.895,267.388,300.063
0.372,34.982,4.486,4.619,315.986,267.321,300.168
0.373,35.176,4.496,4.649,316.092,267.233,300.303
0.375,35.402,4.515,4.681,316.210,267.127,300.465
0.376,35.655,4.542,4.715,316.338,267.007,300.646
0.377,35.926,4.577,4.753,316.474,266.878,300.843
0.379,36.209,4.618,4.794,316.613,266.744,301.049
0.380,36.496,4.666,4.838,316.754,266.608,301.260
0.381,36.781,4.718,4.886,316.893,266.474,301.470
0.382,37.057,4.775,4.937,317.028,266.348,301.674
0.384,37.315,4.836,4.993,317.155,266.231,301.866
0.385,37.552,4.899,5.052,317.274,266.128,302.043
0.386,37.766,4.963,5.114,317.382,266.038,302.204
0.387,37.958,5.027,5.177,317.480,265.961,302.350
0.389,38.129,5.090,5.237,317.569,265.894,302.480
0.390,38.280,5.149,5.292,317.646,265.837,302.597
0.391,38.411,5.204,5.342,317.713,265.789,302.699
0.393,38.524,5.252,5.382,317.770,265.749,302.788
0.394,38.619,5.293,5.411,317.816,265.715,302.864
0.395,38.697,5.325,5.427,317.850,265.687,302.928
0.396,38.759,5.349,5.433,317.874,265.663,302.979
0.398,38.806,5.365,5.430,317.887,265.642,303.020
0.399,38.841,5.376,5.422,317.889,265.624,303.049
0.400,38.867,5.383,5.411,317.885,265.609,303.070
0.402,38.887,5.386,5.400,317.877,265.597,303.084
0.403,38.902,5.388,5.391,317.868,265.587,303.093
0.404,38.912,5.388,5.388,317.863,265.581,303.098
0.405,38.916,5.389,5.392,317.865,265.578,303.101
0.407,38.927,5.390,5.403,317.875,265.579,303.103
0.408,38.952,5.393,5.419,317.899,265.583,303.107
0.409,38.993,5.396,5.437,317.939,265.591,303.114
0.410,39.055,5.401,5.458,317.999,265.603,303.126
0.412,39.141,5.408,5.479,318.082,265.618,303.145
0.413,39.250,5.417,5.498,318.185,265.637,303.170
0.414,39.376,5.428,5.514,318.306,265.659,303.199
0.416,39.516,5.441,5.526,318.440,265.684,303.233
0.417,39.665,5.456,5.534,318.582,265.710,303.268
0.418,39.818,5.470,5.538,318.729,265.737,303.305
0.419,39.971,5.483,5.538,318.875,265.764,303.341
0.421,40.120,5.494,5.535,319.017,265.791,303.375
0.422,40.259,5.501,5.527,319.150,265.817,303.406
0.423,40.385,5.502,5.516,319.271,265.842,303.433
0.425,40.492,5.498,5.501,319.373,265.864,303.454
0.426,40.578,5.487,5.484,319.456,265.883,303.467
0.427,40.643,5.471,5.464,319.518,265.900,303.475
0.428,40.691,5.452,5.443,319.564,265.915,303.477
0.430,40.725,5.431,5.423,319.595,265.928,303.474
0.431,40.749,5.410,5.404,319.615,265.939,303.467
0.432,40.767,5.391,5.387,319.626,265.950,303.457
0.434,40.784,5.375,5.374,319.631,265.961,303.445
0.435,40.800,5.364,5.365,319.633,265.971,303.432
0.436,40.817,5.360,5.362,319.633,265.982,303.419
0.437,40.835,5.360,5.362,319.635,265.993,303.407
0.439,40.853,5.363,5.366,319.642,266.006,303.396
0.440,40.874,5.369,5.371,319.655,266.021,303.387
0.441,40.899,5.376,5.378,319.673,266.036,303.380
0.442,40.926,5.384,5.385,319.694,266.051,303.374
0.444,40.955,5.390,5.390,319.718,266.067,303.369
0.445,40.984,5.394,5.394,319.743,266.082,303.365
0.446,41.013,5.396,5.396,319.768,266.095,303.361
0.448,41.039,5.396,5.395,319.792,266.107,303.356
0.449,41.063,5.394,5.393,319.812,266.116,303.352
0.450,41.081,5.390,5.390,319.829,266.123,303.346
0.451,41.095,5.386,5.385,319.840,266.126,303.338
0.453,41.106,5.381,5.381,319.845,266.125,303.329
0.454,41.117,5.376,5.376,319.845,266.121,303.318
0.455,41.132,5.371,5.371,319.845,266.115,303.305
0.457,41.149,5.365,5.366,319.851,266.109,303.290
0.458,41.173,5.358,5.358,319.866,266.104,303.272
0.459,41.210,5.347,5.348,319.896,266.103,303.252
0.460,41.265,5.332,5.332,319.947,266.107,303.229
0.462,41.345,5.310,5.310,320.022,266.118,303.204
0.463,41.456,5.280,5.280,320.128,266.137,303.176
0.464,41.603,5.241,5.241,320.268,266.166,303.145
0.465,41.790,5.191,5.191,320.448,266.207,303.111
0.467,42.024,5.133,5.133,320.672,266.261,303.075
0.468,42.298,5.069,5.069,320.935,266.326,303.036
0.469,42.603,5.003,5.003,321.229,266.401,302.995
0.471,42.931,4.940,4.940,321.544,266.483,302.954
0.472,43.272,4.882,4.882,321.872,266.568,302.912
0.473,43.618,4.833,4.833,322.203,266.655,302.871
0.474,43.958,4.798,4.798,322.530,266.741,302.832
0.476,44.285,4.778,4.778,322.844,266.823,302.794
0.477,44.587,4.774,4.774,323.135,266.899,302.760
0.478,44.858,4.782,4.782,323.395,266.966,302.728
0.480,45.086,4.799,4.799,323.615,267.021,302.702
0.481,45.267,4.822,4.822,323.790,267.063,302.680
0.482,45.403,4.846,4.846,323.921,267.093,302.663
0.483,45.500,4.870,4.870,324.016,267.112,302.650
0.485,45.564,4.889,4.889,324.078,267.122,302.640
0.486,45.599,4.902,4.902,324.112,267.123,302.634
0.487,45.614,4.908,4.908,324.125,267.117,302.630
0.488,45.625,4.909,4.909,324.121,267.107,302.628
0.490,45.647,4.906,4.906,324.105,267.092,302.628
0.491,45.675,4.900,4.901,324.083,267.075,302.629
0.492,45.705,4.894,4.895,324.059,267.057,302.631
0.494,45.732,4.889,4.889,324.038,267.039,302.633
0.495,45.754,4.886,4.886,324.025,267.022,302.634
0.496,45.770,4.886,4.885,324.017,267.008,302.636
0.497,45.782,4.888,4.888,324.015,266.996,302.636
0.499,45.791,4.892,4.892,324.019,266.988,302.636
0.500,45.799,4.897,4.896,324.027,266.985,302.635
0.501,45.812,4.901,4.900,324.039,266.986,302.633
0.503,45.829,4.903,4.902,324.055,266.992,302.629
0.504,45.853,4.902,4.902,324.073,267.005,302.623
0.505,45.883,4.898,4.898,324.095,267.024,302.616
0.506,45.920,4.889,4.889,324.119,267.051,302.607
0.508,45.964,4.876,4.877,324.144,267.086,302.595
0.509,46.016,4.860,4.863,324.171,267.127,302.581
0.510,46.074,4.843,4.846,324.203,267.172,302.563
0.512,46.136,4.826,4.829,324.239,267.218,302.542
0.513,46.203,4.809,4.811,324.282,267.262,302.516
0.514,46.274,4.794,4.795,324.333,267.301,302.484
0.515,46.351,4.781,4.781,324.393,267.332,302.447
0.517,46.437,4.772,4.769,324.465,267.352,302.404
0.518,46.535,4.766,4.760,324.548,267.358,302.354
0.519,46.648,4.761,4.752,324.645,267.349,302.296
0.520,46.782,4.756,4.746,324.758,267.319,302.231
0.522,46.938,4.752,4.741,324.886,267.269,302.157
