"T","Distance","Radius","FreeRadius","X","Y","Z"
0.000,0.000,2.247,2.247,-24.900,113.932,161.972
0.001,0.485,2.380,2.380,-24.606,114.318,161.950
0.003,0.966,2.512,2.512,-24.315,114.699,161.928
0.004,1.436,2.645,2.645,-24.030,115.073,161.905
0.005,1.891,2.778,2.778,-23.754,115.434,161.882
0.007,2.326,2.912,2.912,-23.491,115.779,161.858
0.008,2.735,3.047,3.047,-23.242,116.103,161.833
0.009,3.115,3.182,3.182,-23.012,116.403,161.808
0.011,3.458,3.318,3.318,-22.802,116.675,161.781
0.012,3.762,3.454,3.454,-22.617,116.914,161.753
0.013,4.020,3.587,3.587,-22.459,117.116,161.724
0.014,4.228,3.711,3.711,-22.332,117.277,161.693
0.016,4.384,3.825,3.825,-22.236,117.396,161.660
0.017,4.495,3.925,3.925,-22.168,117.477,161.627
0.018,4.568,4.006,4.006,-22.125,117.526,161.594
0.020,4.613,4.066,4.066,-22.101,117.549,161.563
0.021,4.643,4.100,4.100,-22.094,117.550,161.534
0.022,4.673,4.112,4.112,-22.100,117.537,161.508
0.024,4.707,4.107,4.107,-22.114,117.513,161.486
0.025,4.744,4.089,4.089,-22.132,117.486,161.470
0.026,4.778,4.066,4.066,-22.151,117.460,161.460
0.028,4.802,4.043,4.043,-22.166,117.441,161.458
0.029,4.814,4.024,4.024,-22.174,117.435,161.463
0.030,4.830,4.017,4.017,-22.172,117.444,161.477
0.032,4.862,4.024,4.024,-22.163,117.467,161.497
0.033,4.908,4.045,4.045,-22.147,117.500,161.524
0.034,4.964,4.075,4.075,-22.126,117.543,161.554
0.036,5.027,4.112,4.112,-22.102,117.592,161.586
0.037,5.095,4.152,4.152,-22.077,117.644,161.620
0.038,5.163,4.192,4.192,-22.052,117.699,161.653
0.040,5.230,4.228,4.228,-22.029,117.753,161.685
0.041,5.291,4.258,4.258,-22.010,117.803,161.713
0.042,5.343,4.280,4.280,-21.996,117.848,161.736
0.043,5.385,4.294,4.294,-21.988,117.885,161.753
0.045,5.415,4.303,4.303,-21.987,117.914,161.764
0.046,5.437,4.308,4.308,-21.991,117.935,161.769
0.047,5.454,4.310,4.310,-21.998,117.950,161.770
0.049,5.466,4.311,4.311,-22.005,117.960,161.768
0.050,5.474,4.312,4.312,-22.010,117.965,161.764
0.051,5.480,4.315,4.315,-22.011,117.968,161.759
0.053,5.486,4.319,4.319,-22.007,117.969,161.755
0.054,5.498,4.325,4.325,-21.995,117.969,161.753
0.055,5.520,4.334,4.334,-21.973,117.969,161.754
0.057,5.554,4.343,4.343,-21.939,117.972,161.759
0.058,5.604,4.355,4.355,-21.891,117.976,161.769
0.059,5.668,4.368,4.368,-21.830,117.985,161.785
0.061,5.744,4.382,4.382,-21.759,117.999,161.808
0.062,5.830,4.398,4.398,-21.680,118.018,161.838
0.063,5.924,4.416,4.416,-21.598,118.044,161.876
0.065,6.026,4.437,4.437,-21.514,118.078,161.922
0.066,6.134,4.463,4.463,-21.432,118.122,161.978
0.067,6.248,4.494,4.494,-21.355,118.175,162.043
0.069,6.370,4.532,4.532,-21.285,118.239,162.119
0.070,6.500,4.577,4.577,-21.226,118.315,162.205
0.071,6.640,4.630,4.630,-21.180,118.405,162.304
0.072,6.794,4.691,4.691,-21.151,118.508,162.414
0.074,6.960,4.757,4.757,-21.137,118.624,162.533
0.075,7.136,4.823,4.823,-21.136,118.748,162.657
0.076,7.317,4.888,4.888,-21.146,118.878,162.782
0.078,7.499,4.947,4.947,-21.165,119.011,162.905
0.079,7.676,4.997,4.997,-21.189,119.144,163.020
0.080,7.845,5.035,5.035,-21.218,119.274,163.124
0.082,8.000,5.058,5.058,-21.249,119.397,163.214
0.083,8.137,5.067,5.067,-21.278,119.511,163.284
0.084,8.252,5.065,5.065,-21.305,119.612,163.330
0.086,8.342,5.057,5.057,-21.327,119.697,163.350
0.087,8.412,5.047,5.047,-21.342,119.765,163.340
0.088,8.474,5.038,5.038,-21.348,119.817,163.307
0.090,8.535,5.034,5.034,-21.345,119.854,163.258
0.091,8.597,5.039,5.039,-21.332,119.880,163.204
0.092,8.657,5.056,5.056,-21.308,119.897,163.151
0.094,8.713,5.082,5.082,-21.272,119.907,163.109
0.095,8.767,5.113,5.113,-21.224,119.913,163.086
0.096,8.828,5.144,5.144,-21.163,119.918,163.090
0.097,8.914,5.171,5.171,-21.088,119.923,163.131
0.099,9.038,5.191,5.191,-20.998,119.932,163.216
0.100,9.213,5.199,5.199,-20.892,119.946,163.355
0.101,9.445,5.190,5.190,-20.771,119.969,163.551
0.103,9.727,5.165,5.165,-20.636,119.999,163.796
0.104,10.049,5.124,5.124,-20.489,120.036,164.081
0.105,10.402,5.073,5.073,-20.335,120.081,164.395
0.107,10.775,5.013,5.013,-20.175,120.133,164.728
0.108,11.158,4.948,4.948,-20.011,120.193,165.069
0.109,11.541,4.881,4.881,-19.847,120.259,165.408
0.111,11.913,4.815,4.815,-19.686,120.331,165.736
0.112,12.266,4.754,4.754,-19.528,120.410,166.042
0.113,12.589,4.699,4.699,-19.378,120.496,166.315
0.115,12.874,4.652,4.652,-19.238,120.587,166.546
0.116,13.118,4.613,4.613,-19.109,120.684,166.729
0.117,13.327,4.585,4.585,-18.991,120.784,166.868
0.119,13.508,4.568,4.568,-18.883,120.887,166.970
0.120,13.667,4.564,4.564,-18.784,120.991,167.040
0.121,13.811,4.573,4.573,-18.692,121.094,167.084
0.123,13.944,4.597,4.597,-18.608,121.194,167.106
0.124,14.068,4.632,4.632,-18.531,121.290,167.113
0.125,14.184,4.675,4.675,-18.459,121.381,167.110
0.126,14.291,4.722,4.722,-18.391,121.464,167.102
0.128,14.390,4.770,4.770,-18.327,121.539,167.096
0.129,14.478,4.816,4.816,-18.267,121.603,167.096
0.130,14.558,4.856,4.856,-18.208,121.657,167.106
0.132,14.632,4.887,4.887,-18.152,121.702,167.124
0.133,14.702,4.907,4.907,-18.098,121.739,167.148
0.134,14.769,4.917,4.917,-18.046,121.770,167.177
0.136,14.835,4.921,4.921,-17.996,121.797,167.209
0.137,14.899,4.920,4.920,-17.947,121.821,167.244
0.138,14.962,4.916,4.916,-17.900,121.844,167.279
0.140,15.024,4.911,4.911,-17.854,121.868,167.314
0.141,15.085,4.907,4.907,-17.810,121.894,167.346
0.142,15.144,4.906,4.906,-17.767,121.923,167.375
0.144,15.204,4.909,4.909,-17.725,121.957,167.398
0.145,15.264,4.915,4.915,-17.683,121.997,167.417
0.146,15.327,4.923,4.923,-17.641,122.042,167.431
0.148,15.392,4.934,4.934,-17.599,122.090,167.442
0.149,15.459,4.946,4.946,-17.555,122.140,167.452
0.150,15.530,4.960,4.960,-17.510,122.193,167.462
0.152,15.602,4.974,4.974,-17.462,122.246,167.471
0.153,15.677,4.989,4.989,-17.410,122.300,167.483
0.154,15.755,5.004,5.004,-17.355,122.353,167.497
0.155,15.836,5.019,5.019,-17.296,122.404,167.516
0.157,15.920,5.035,5.035,-17.231,122.452,167.539
0.158,16.009,5.052,5.052,-17.161,122.497,167.569
0.159,16.103,5.070,5.070,-17.084,122.540,167.605
0.161,16.203,5.089,5.089,-17.002,122.582,167.645
0.162,16.310,5.110,5.110,-16.915,122.624,167.688
0.163,16.423,5.132,5.132,-16.821,122.668,167.734
0.165,16.543,5.158,5.158,-16.722,122.717,167.781
0.166,16.669,5.188,5.188,-16.617,122.771,167.827
0.167,16.804,5.224,5.224,-16.507,122.832,167.872
0.169,16.946,5.267,5.267,-16.391,122.902,167.915
0.170,17.096,5.317,5.317,-16.270,122.983,167.955
0.171,17.257,5.378,5.378,-16.143,123.075,167.989
0.173,17.429,5.449,5.449,-16.011,123.181,168.018
0.174,17.609,5.529,5.529,-15.876,123.297,168.041
0.175,17.794,5.614,5.614,-15.739,123.422,168.059
0.177,17.982,5.702,5.702,-15.604,123.551,168.073
0.178,18.168,5.788,5.788,-15.472,123.681,168.082
0.179,18.348,5.869,5.869,-15.345,123.810,168.089
0.181,18.519,5.943,5.943,-15.227,123.933,168.093
0.182,18.678,6.004,6.004,-15.118,124.049,168.094
0.183,18.819,6.052,6.052,-15.022,124.153,168.094
0.184,18.940,6.087,6.087,-14.940,124.242,168.093
0.186,19.036,6.111,6.111,-14.876,124.313,168.091
0.187,19.106,6.125,6.125,-14.829,124.364,168.089
0.188,19.150,6.133,6.133,-14.799,124.398,168.087
0.190,19.174,6.135,6.135,-14.783,124.415,168.086
0.191,19.181,6.134,6.134,-14.779,124.420,168.085
0.192,19.188,6.132,6.132,-14.783,124.415,168.083
0.194,19.205,6.130,6.130,-14.795,124.403,168.083
0.195,19.229,6.128,6.128,-14.811,124.386,168.082
0.196,19.255,6.126,6.126,-14.829,124.367,168.083
0.198,19.280,6.125,6.125,-14.846,124.349,168.083
0.199,19.301,6.125,6.125,-14.861,124.334,168.084
0.200,19.313,6.126,6.126,-14.870,124.326,168.086
0.202,19.317,6.128,6.128,-14.873,124.325,168.088
0.203,19.325,6.131,6.131,-14.869,124.332,168.091
0.204,19.342,6.136,6.136,-14.861,124.346,168.094
0.206,19.366,6.142,6.142,-14.848,124.366,168.097
0.207,19.397,6.149,6.149,-14.832,124.393,168.100
0.208,19.434,6.158,6.158,-14.814,124.425,168.102
0.209,19.476,6.167,6.167,-14.795,124.462,168.104
0.211,19.522,6.177,6.177,-14.776,124.504,168.105
0.212,19.571,6.188,6.188,-14.757,124.550,168.105
0.213,19.623,6.199,6.199,-14.740,124.599,168.103
0.215,19.677,6.211,6.211,-14.726,124.650,168.101
0.216,19.732,6.222,6.223,-14.715,124.704,168.097
0.217,19.789,6.234,6.234,-14.706,124.760,168.091
0.219,19.847,6.246,6.246,-14.699,124.818,168.084
0.220,19.906,6.257,6.258,-14.694,124.876,168.076
0.221,19.965,6.268,6.268,-14.688,124.934,168.066
0.223,20.024,6.279,6.279,-14.683,124.992,168.055
0.224,20.083,6.288,6.288,-14.677,125.049,168.043
0.225,20.141,6.296,6.295,-14.670,125.104,168.029
0.227,20.197,6.302,6.301,-14.660,125.158,168.014
0.228,20.252,6.306,6.305,-14.648,125.209,167.998
0.229,20.306,6.307,6.306,-14.632,125.257,167.981
0.231,20.358,6.305,6.305,-14.613,125.302,167.963
0.232,20.408,6.300,6.300,-14.592,125.344,167.944
0.233,20.456,6.291,6.291,-14.569,125.381,167.925
0.235,20.500,6.278,6.279,-14.546,125.414,167.906
0.236,20.542,6.264,6.266,-14.522,125.442,167.887
0.237,20.579,6.249,6.252,-14.500,125.465,167.868
0.238,20.611,6.236,6.239,-14.480,125.483,167.851
0.240,20.639,6.226,6.228,-14.462,125.496,167.834
0.241,20.661,6.219,6.221,-14.448,125.503,167.819
0.242,20.677,6.218,6.218,-14.439,125.503,167.805
0.244,20.691,6.223,6.221,-14.434,125.497,167.793
0.245,20.705,6.232,6.227,-14.434,125.487,167.784
0.246,20.717,6.242,6.235,-14.434,125.476,167.778
0.248,20.727,6.250,6.241,-14.433,125.466,167.777
0.249,20.736,6.252,6.244,-14.427,125.461,167.779
0.250,20.752,6.245,6.240,-14.413,125.464,167.788
0.252,20.783,6.227,6.228,-14.390,125.479,167.802
0.253,20.833,6.194,6.205,-14.354,125.508,167.823
0.254,20.909,6.145,6.170,-14.302,125.555,167.851
0.256,21.012,6.082,6.122,-14.232,125.622,167.888
0.257,21.149,6.007,6.063,-14.141,125.713,167.934
0.258,21.322,5.922,5.994,-14.027,125.830,167.989
0.260,21.527,5.829,5.914,-13.892,125.970,168.052
0.261,21.756,5.731,5.825,-13.741,126.129,168.122
0.262,22.003,5.628,5.726,-13.579,126.300,168.196
0.264,22.260,5.524,5.619,-13.410,126.478,168.273
0.265,22.520,5.421,5.507,-13.239,126.658,168.350
0.266,22.776,5.320,5.393,-13.071,126.835,168.426
0.267,23.020,5.225,5.281,-12.910,127.004,168.499
0.269,23.246,5.136,5.176,-12.761,127.159,168.567
0.270,23.445,5.058,5.081,-12.629,127.295,168.628
0.271,23.612,4.991,5.000,-12.518,127.407,168.681
0.273,23.740,4.938,4.938,-12.431,127.491,168.723
0.274,23.835,4.900,4.896,-12.365,127.551,168.757
0.275,23.904,4.875,4.872,-12.317,127.591,168.785
0.277,23.955,4.859,4.861,-12.281,127.618,168.810
0.278,23.994,4.849,4.858,-12.254,127.637,168.833
0.279,24.031,4.840,4.859,-12.232,127.652,168.856
0.281,24.070,4.829,4.857,-12.208,127.669,168.883
0.282,24.119,4.814,4.850,-12.181,127.693,168.915
0.283,24.185,4.789,4.831,-12.144,127.731,168.955
0.285,24.274,4.754,4.800,-12.094,127.786,169.005
0.286,24.395,4.712,4.759,-12.026,127.864,169.067
0.287,24.551,4.665,4.711,-11.938,127.969,169.143
0.289,24.739,4.616,4.659,-11.833,128.096,169.230
0.290,24.952,4.568,4.607,-11.712,128.242,169.329
0.291,25.185,4.523,4.558,-11.580,128.402,169.436
0.292,25.433,4.485,4.514,-11.440,128.571,169.550
0.294,25.689,4.455,4.479,-11.295,128.746,169.669
0.295,25.949,4.435,4.453,-11.147,128.922,169.791
0.296,26.207,4.423,4.436,-11.001,129.094,169.915
0.298,26.457,4.418,4.427,-10.859,129.258,170.039
0.299,26.694,4.419,4.426,-10.724,129.410,170.161
0.300,26.912,4.424,4.430,-10.600,129.545,170.279
0.302,27.110,4.433,4.440,-10.488,129.662,170.393
0.303,27.289,4.444,4.456,-10.388,129.762,170.502
0.304,27.451,4.456,4.475,-10.299,129.847,170.607
0.306,27.598,4.470,4.497,-10.220,129.920,170.709
0.307,27.734,4.484,4.522,-10.152,129.983,170.808
0.308,27.859,4.501,4.548,-10.093,130.038,170.904
0.310,27.977,4.519,4.575,-10.042,130.087,170.998
0.311,28.088,4.539,4.602,-9.999,130.132,171.090
0.312,28.195,4.560,4.628,-9.963,130.177,171.181
0.314,28.300,4.584,4.652,-9.934,130.222,171.270
0.315,28.405,4.610,4.674,-9.910,130.270,171.360
0.316,28.510,4.636,4.693,-9.891,130.323,171.449
0.318,28.619,4.662,4.709,-9.875,130.382,171.538
0.319,28.731,4.686,4.722,-9.859,130.448,171.627
0.320,28.848,4.708,4.732,-9.843,130.523,171.716
0.321,28.972,4.726,4.739,-9.823,130.607,171.805
0.323,29.104,4.739,4.742,-9.798,130.702,171.894
0.324,29.246,4.746,4.741,-9.766,130.809,171.982
0.325,29.400,4.748,4.738,-9.726,130.928,172.070
0.327,29.568,4.748,4.734,-9.674,131.062,172.159
0.328,29.753,4.748,4.733,-9.611,131.211,172.247
0.329,29.956,4.750,4.735,-9.532,131.376,172.335
0.331,30.176,4.756,4.745,-9.441,131.556,172.423
0.332,30.406,4.769,4.763,-9.340,131.744,172.509
0.333,30.643,4.791,4.791,-9.232,131.938,172.592
0.335,30.880,4.824,4.832,-9.120,132.131,172.672
0.336,31.111,4.865,4.883,-9.008,132.319,172.747
0.337,31.332,4.912,4.940,-8.900,132.498,172.817
0.339,31.535,4.961,4.999,-8.797,132.662,172.880
0.340,31.716,5.010,5.057,-8.705,132.807,172.936
0.341,31.869,5.055,5.111,-8.625,132.929,172.983
0.343,31.988,5.094,5.157,-8.562,133.021,173.021
0.344,32.068,5.123,5.191,-8.517,133.082,173.049
0.345,32.112,5.142,5.212,-8.490,133.113,173.067
0.347,32.130,5.152,5.222,-8.478,133.120,173.077
0.348,32.141,5.154,5.223,-8.478,133.109,173.080
0.349,32.165,5.151,5.218,-8.487,133.087,173.078
0.350,32.197,5.144,5.208,-8.501,133.059,173.072
0.352,32.231,5.135,5.195,-8.517,133.031,173.063
0.353,32.259,5.126,5.183,-8.533,133.009,173.053
0.354,32.278,5.118,5.172,-8.545,132.999,173.043
0.356,32.291,5.112,5.164,-8.551,133.007,173.035
0.357,32.324,5.108,5.159,-8.547,133.040,173.030
0.358,32.387,5.108,5.157,-8.531,133.101,173.028
0.360,32.478,5.110,5.158,-8.504,133.187,173.031
0.361,32.592,5.115,5.163,-8.468,133.295,173.037
0.362,32.722,5.123,5.171,-8.425,133.418,173.046
0.364,32.865,5.135,5.182,-8.378,133.552,173.057
0.365,33.013,5.150,5.197,-8.328,133.691,173.069
0.366,33.163,5.168,5.215,-8.278,133.831,173.082
0.368,33.307,5.187,5.235,-8.230,133.967,173.096
0.369,33.441,5.207,5.255,-8.187,134.093,173.109
0.370,33.559,5.226,5.276,-8.149,134.204,173.121
0.372,33.655,5.244,5.295,-8.120,134.296,173.131
0.373,33.727,5.259,5.313,-8.101,134.364,173.140
0.374,33.778,5.270,5.328,-8.090,134.413,173.146
0.375,33.812,5.277,5.340,-8.085,134.446,173.152
0.377,33.833,5.281,5.349,-8.084,134.467,173.158
0.378,33.848,5.282,5.355,-8.084,134.481,173.163
0.379,33.859,5.282,5.360,-8.085,134.490,173.168
0.381,33.871,5.281,5.364,-8.082,134.500,173.175
0.382,33.889,5.281,5.367,-8.076,134.514,173.184
0.383,33.917,5.281,5.369,-8.062,134.537,173.194
0.385,33.961,5.284,5.372,-8.039,134.572,173.207
0.386,34.024,5.289,5.375,-8.006,134.623,173.223
0.387,34.109,5.295,5.379,-7.961,134.693,173.243
0.389,34.213,5.302,5.383,-7.905,134.777,173.265
0.390,34.331,5.311,5.388,-7.842,134.874,173.288
0.391,34.459,5.319,5.394,-7.773,134.979,173.313
0.393,34.594,5.327,5.401,-7.701,135.090,173.338
0.394,34.731,5.335,5.408,-7.626,135.202,173.363
0.395,34.866,5.341,5.417,-7.553,135.313,173.387
0.397,34.995,5.347,5.427,-7.482,135.419,173.409
0.398,35.115,5.351,5.436,-7.416,135.517,173.428
0.399,35.221,5.355,5.446,-7.356,135.603,173.443
0.401,35.309,5.359,5.455,-7.306,135.675,173.455
0.402,35.379,5.363,5.463,-7.264,135.731,173.462
0.403,35.434,5.366,5.470,-7.231,135.774,173.466
0.404,35.477,5.369,5.475,-7.202,135.806,173.468
0.406,35.513,5.373,5.478,-7.176,135.831,173.468
0.407,35.545,5.377,5.479,-7.152,135.852,173.468
0.408,35.577,5.381,5.478,-7.126,135.870,173.469
0.410,35.611,5.385,5.475,-7.097,135.889,173.471
0.411,35.653,5.388,5.471,-7.063,135.912,173.476
0.412,35.704,5.392,5.466,-7.022,135.942,173.485
0.414,35.769,5.395,5.458,-6.971,135.980,173.498
0.415,35.852,5.398,5.450,-6.909,136.031,173.517
0.416,35.952,5.400,5.440,-6.835,136.093,173.542
0.418,36.067,5.403,5.432,-6.751,136.167,173.573
0.419,36.195,5.407,5.425,-6.659,136.248,173.610
0.420,36.335,5.411,5.422,-6.560,136.337,173.652
0.422,36.483,5.417,5.423,-6.456,136.431,173.701
0.423,36.639,5.425,5.430,-6.348,136.528,173.756
0.424,36.798,5.434,5.443,-6.238,136.627,173.816
0.426,36.960,5.446,5.465,-6.128,136.726,173.882
0.427,37.123,5.460,5.493,-6.019,136.823,173.954
0.428,37.285,5.476,5.525,-5.912,136.916,174.032
0.430,37.444,5.493,5.561,-5.810,137.004,174.116
0.431,37.599,5.511,5.598,-5.712,137.086,174.204
0.432,37.750,5.530,5.635,-5.620,137.162,174.297
0.433,37.897,5.550,5.669,-5.533,137.232,174.392
0.435,38.039,5.570,5.700,-5.452,137.297,174.489
0.436,38.175,5.589,5.726,-5.376,137.356,174.586
0.437,38.306,5.609,5.747,-5.307,137.409,174.683
0.439,38.430,5.627,5.765,-5.243,137.457,174.778
0.440,38.546,5.644,5.780,-5.187,137.500,174.870
0.441,38.654,5.659,5.793,-5.137,137.537,174.958
0.443,38.753,5.672,5.804,-5.095,137.569,175.041
0.444,38.842,5.683,5.814,-5.059,137.596,175.119
0.445,38.922,5.691,5.823,-5.030,137.618,175.190
0.447,38.995,5.696,5.831,-5.007,137.635,175.257
0.448,39.061,5.700,5.839,-4.988,137.649,175.319
0.449,39.121,5.703,5.847,-4.974,137.658,175.377
0.451,39.177,5.706,5.853,-4.962,137.665,175.431
0.452,39.230,5.709,5.858,-4.953,137.668,175.483
0.453,39.280,5.714,5.862,-4.944,137.669,175.532
0.455,39.329,5.720,5.865,-4.936,137.668,175.580
0.456,39.376,5.730,5.866,-4.928,137.665,175.627
0.457,39.424,5.742,5.866,-4.917,137.661,175.673
0.458,39.473,5.755,5.866,-4.905,137.657,175.720
0.460,39.523,5.770,5.867,-4.890,137.652,175.768
0.461,39.576,5.785,5.869,-4.873,137.648,175.818
0.462,39.633,5.801,5.872,-4.852,137.646,175.871
0.464,39.696,5.817,5.878,-4.829,137.646,175.929
0.465,39.764,5.832,5.887,-4.802,137.650,175.992
0.466,39.841,5.845,5.899,-4.771,137.658,176.062
0.468,39.926,5.858,5.914,-4.737,137.671,176.139
0.469,40.022,5.871,5.931,-4.700,137.691,176.225
0.470,40.129,5.884,5.948,-4.658,137.717,176.320
0.472,40.250,5.898,5.966,-4.612,137.751,176.426
0.473,40.384,5.912,5.983,-4.562,137.793,176.544
0.474,40.531,5.928,5.999,-4.508,137.842,176.671
0.476,40.688,5.945,6.013,-4.452,137.897,176.807
0.477,40.853,5.964,6.026,-4.395,137.956,176.950
0.478,41.025,5.985,6.037,-4.337,138.019,177.099
0.480,41.201,6.007,6.049,-4.279,138.084,177.253
0.481,41.380,6.031,6.061,-4.223,138.149,177.410
0.482,41.561,6.057,6.075,-4.168,138.214,177.569
0.484,41.740,6.084,6.092,-4.117,138.278,177.728
0.485,41.916,6.113,6.113,-4.069,138.338,177.887
0.486,42.088,6.143,6.137,-4.026,138.394,178.043
0.487,42.254,6.174,6.166,-3.988,138.446,178.196
0.489,42.413,6.206,6.197,-3.954,138.493,178.345
0.490,42.566,6.239,6.230,-3.925,138.535,178.488
0.491,42.711,6.272,6.265,-3.898,138.573,178.626
0.493,42.848,6.305,6.301,-3.875,138.606,178.757
0.494,42.975,6.338,6.336,-3.854,138.636,178.879
0.495,43.094,6.370,6.371,-3.835,138.661,178.993
0.497,43.202,6.401,6.404,-3.817,138.682,179.097
0.498,43.299,6.431,6.435,-3.799,138.700,179.191
0.499,43.384,6.459,6.463,-3.781,138.715,179.273
0.501,43.457,6.484,6.489,-3.763,138.725,179.343
0.502,43.518,6.507,6.511,-3.744,138.733,179.401
0.503,43.570,6.526,6.529,-3.725,138.739,179.449
0.505,43.615,6.542,6.543,-3.705,138.742,179.489
0.506,43.655,6.553,6.551,-3.685,138.744,179.523
0.507,43.691,6.561,6.556,-3.664,138.745,179.553
0.509,43.726,6.566,6.558,-3.643,138.746,179.580
0.510,43.760,6.569,6.559,-3.623,138.747,179.608
0.511,43.796,6.572,6.561,-3.602,138.749,179.637
0.513,43.835,6.576,6.566,-3.582,138.753,179.670
0.514,43.878,6.581,6.574,-3.562,138.758,179.709
0.515,43.929,6.588,6.588,-3.542,138.766,179.755
0.516,43.986,6.599,6.609,-3.524,138.775,179.808
0.518,44.048,6.613,6.634,-3.506,138.785,179.866
0.519,44.113,6.626,6.660,-3.488,138.793,179.929
0.520,44.180,6.640,6.685,-3.472,138.798,179.993
0.522,44.247,6.650,6.706,-3.457,138.798,180.058
0.523,44.312,6.657,6.720,-3.443,138.792,180.122
0.524,44.376,6.659,6.723,-3.430,138.778,180.183
0.526,44.438,6.653,6.714,-3.418,138.754,180.239
0.527,44.500,6.640,6.691,-3.407,138.719,180.289
0.528,44.563,6.621,6.657,-3.398,138.672,180.330
0.530,44.633,6.595,6.617,-3.391,138.611,180.363
0.531,44.711,6.564,6.572,-3.381,138.539,180.390
0.532,44.795,6.529,6.526,-3.366,138.460,180.416
0.534,44.884,6.489,6.482,-3.342,138.380,180.446
0.535,44.979,6.447,6.444,-3.304,138.302,180.484
0.536,45.083,6.403,6.414,-3.249,138.230,180.537
0.538,45.204,6.357,6.392,-3.172,138.171,180.608
0.539,45.349,6.308,6.375,-3.070,138.126,180.702
0.540,45.531,6.258,6.360,-2.939,138.102,180.825
0.542,45.757,6.206,6.345,-2.774,138.103,180.981
