"T","Distance","Radius","FreeRadius","X","Y","Z"
0.000,0.000,2.738,2.738,83.239,-111.778,-155.963
0.001,0.211,2.794,2.794,83.309,-111.938,-155.845
0.003,0.421,2.851,2.851,83.381,-112.097,-155.728
0.004,0.628,2.908,2.908,83.457,-112.254,-155.616
0.006,0.833,2.965,2.965,83.540,-112.408,-155.510
0.007,1.034,3.022,3.022,83.631,-112.559,-155.412
0.008,1.232,3.079,3.079,83.732,-112.705,-155.325
0.010,1.428,3.136,3.136,83.846,-112.845,-155.250
0.011,1.623,3.193,3.193,83.975,-112.979,-155.189
0.013,1.820,3.250,3.250,84.120,-113.105,-155.145
0.014,2.024,3.305,3.305,84.284,-113.222,-155.119
0.016,2.238,3.357,3.357,84.469,-113.331,-155.114
0.017,2.467,3.405,3.405,84.675,-113.429,-155.131
0.018,2.712,3.448,3.448,84.900,-113.519,-155.167
0.020,2.970,3.485,3.485,85.138,-113.601,-155.222
0.021,3.238,3.515,3.515,85.386,-113.676,-155.291
0.023,3.515,3.538,3.538,85.640,-113.747,-155.375
0.024,3.795,3.557,3.557,85.895,-113.814,-155.469
0.025,4.075,3.572,3.572,86.147,-113.878,-155.572
0.027,4.351,3.586,3.586,86.392,-113.941,-155.682
0.028,4.619,3.599,3.599,86.626,-114.004,-155.797
0.030,4.875,3.613,3.613,86.845,-114.069,-155.913
0.031,5.115,3.630,3.630,87.044,-114.135,-156.030
0.032,5.337,3.650,3.650,87.221,-114.205,-156.144
0.034,5.541,3.670,3.670,87.377,-114.276,-156.256
0.035,5.726,3.690,3.690,87.512,-114.345,-156.362
0.037,5.893,3.708,3.708,87.629,-114.411,-156.461
0.038,6.041,3.722,3.722,87.728,-114.472,-156.552
0.040,6.169,3.730,3.730,87.811,-114.526,-156.634
0.041,6.277,3.732,3.732,87.878,-114.569,-156.705
0.042,6.362,3.727,3.727,87.932,-114.602,-156.763
0.044,6.425,3.718,3.718,87.973,-114.620,-156.808
0.045,6.467,3.705,3.705,88.003,-114.623,-156.836
0.047,6.494,3.693,3.693,88.022,-114.607,-156.848
0.048,6.528,3.681,3.681,88.033,-114.576,-156.844
0.049,6.572,3.674,3.674,88.037,-114.535,-156.829
0.051,6.619,3.672,3.672,88.038,-114.492,-156.808
0.052,6.662,3.677,3.677,88.037,-114.455,-156.786
0.054,6.690,3.686,3.686,88.037,-114.432,-156.770
0.055,6.698,3.698,3.698,88.040,-114.430,-156.763
0.056,6.727,3.709,3.709,88.048,-114.457,-156.772
0.058,6.799,3.718,3.718,88.064,-114.521,-156.802
0.059,6.923,3.722,3.722,88.091,-114.628,-156.858
0.061,7.109,3.718,3.718,88.130,-114.788,-156.945
0.062,7.366,3.707,3.707,88.184,-115.006,-157.069
0.064,7.693,3.692,3.692,88.253,-115.283,-157.229
0.065,8.076,3.679,3.679,88.333,-115.606,-157.418
0.066,8.501,3.673,3.673,88.422,-115.964,-157.629
0.068,8.954,3.679,3.679,88.518,-116.345,-157.854
0.069,9.420,3.704,3.704,88.615,-116.737,-158.087
0.071,9.886,3.752,3.752,88.713,-117.129,-158.319
0.072,10.336,3.826,3.826,88.807,-117.507,-158.545
0.073,10.757,3.922,3.922,88.895,-117.861,-158.755
0.075,11.134,4.031,4.031,88.973,-118.178,-158.943
0.076,11.454,4.145,4.145,89.039,-118.447,-159.102
0.078,11.701,4.256,4.256,89.089,-118.657,-159.225
0.079,11.875,4.356,4.356,89.123,-118.805,-159.310
0.081,11.984,4.435,4.435,89.144,-118.898,-159.362
0.082,12.038,4.488,4.488,89.153,-118.945,-159.386
0.083,12.046,4.515,4.515,89.152,-118.953,-159.387
0.085,12.076,4.521,4.521,89.144,-118.928,-159.370
0.086,12.136,4.511,4.511,89.131,-118.880,-159.338
0.088,12.214,4.490,4.490,89.114,-118.815,-159.298
0.089,12.303,4.462,4.462,89.096,-118.740,-159.254
0.090,12.392,4.433,4.433,89.079,-118.664,-159.210
0.092,12.474,4.407,4.407,89.065,-118.594,-159.171
0.093,12.539,4.387,4.387,89.056,-118.536,-159.142
0.095,12.584,4.371,4.371,89.052,-118.495,-159.124
0.096,12.612,4.360,4.360,89.053,-118.468,-159.114
0.097,12.623,4.354,4.354,89.056,-118.458,-159.112
0.099,12.631,4.352,4.352,89.062,-118.463,-159.116
0.100,12.654,4.355,4.355,89.068,-118.483,-159.124
0.102,12.691,4.363,4.363,89.074,-118.519,-159.134
0.103,12.743,4.375,4.375,89.079,-118.569,-159.144
0.105,12.810,4.392,4.392,89.082,-118.635,-159.153
0.106,12.891,4.412,4.412,89.081,-118.716,-159.160
0.107,12.986,4.436,4.436,89.076,-118.811,-159.162
0.109,13.096,4.465,4.465,89.066,-118.921,-159.159
0.110,13.219,4.496,4.496,89.052,-119.042,-159.150
0.112,13.350,4.532,4.532,89.034,-119.172,-159.139
0.113,13.487,4.570,4.570,89.016,-119.307,-159.128
0.114,13.624,4.609,4.609,88.998,-119.442,-159.118
0.116,13.758,4.648,4.648,88.983,-119.576,-159.112
0.117,13.886,4.685,4.685,88.971,-119.703,-159.113
0.119,14.004,4.719,4.719,88.965,-119.821,-159.121
0.120,14.111,4.747,4.747,88.967,-119.925,-159.141
0.121,14.205,4.769,4.769,88.977,-120.013,-159.173
0.123,14.290,4.783,4.783,88.998,-120.080,-159.220
0.124,14.374,4.791,4.790,89.031,-120.125,-159.284
0.126,14.467,4.793,4.791,89.075,-120.149,-159.362
0.127,14.571,4.790,4.789,89.128,-120.159,-159.451
0.129,14.684,4.784,4.783,89.187,-120.159,-159.547
0.130,14.802,4.776,4.775,89.253,-120.155,-159.645
0.131,14.921,4.767,4.767,89.321,-120.151,-159.743
0.133,15.038,4.758,4.759,89.391,-120.153,-159.836
0.134,15.148,4.750,4.753,89.460,-120.167,-159.922
0.136,15.252,4.745,4.750,89.526,-120.196,-159.995
0.137,15.351,4.745,4.750,89.589,-120.247,-160.052
0.138,15.453,4.750,4.756,89.645,-120.324,-160.090
0.140,15.573,4.763,4.767,89.693,-120.432,-160.106
0.141,15.714,4.785,4.786,89.736,-120.567,-160.103
0.143,15.876,4.817,4.812,89.774,-120.723,-160.084
0.144,16.055,4.856,4.845,89.811,-120.896,-160.053
0.145,16.247,4.900,4.883,89.848,-121.080,-160.015
0.147,16.446,4.943,4.923,89.887,-121.270,-159.973
0.148,16.646,4.984,4.963,89.932,-121.462,-159.932
0.150,16.844,5.018,5.002,89.984,-121.649,-159.895
0.151,17.034,5.041,5.037,90.045,-121.827,-159.866
0.153,17.214,5.052,5.067,90.117,-121.990,-159.850
0.154,17.381,5.050,5.090,90.203,-122.134,-159.850
0.155,17.540,5.039,5.109,90.304,-122.254,-159.868
0.157,17.694,5.024,5.123,90.417,-122.353,-159.903
0.158,17.847,5.007,5.132,90.539,-122.432,-159.952
0.160,18.000,4.993,5.138,90.667,-122.493,-160.011
0.161,18.153,4.985,5.141,90.797,-122.539,-160.078
0.162,18.305,4.986,5.141,90.926,-122.573,-160.149
0.164,18.451,4.997,5.139,91.051,-122.596,-160.221
0.165,18.589,5.015,5.136,91.168,-122.611,-160.292
0.167,18.715,5.037,5.132,91.276,-122.619,-160.358
0.168,18.825,5.062,5.127,91.369,-122.625,-160.416
0.169,18.915,5.086,5.122,91.445,-122.628,-160.464
0.171,18.982,5.107,5.119,91.502,-122.633,-160.498
0.172,19.029,5.123,5.116,91.543,-122.637,-160.522
0.174,19.060,5.133,5.115,91.570,-122.643,-160.536
0.175,19.079,5.137,5.116,91.586,-122.649,-160.543
0.177,19.089,5.138,5.118,91.593,-122.655,-160.545
0.178,19.097,5.137,5.121,91.595,-122.663,-160.542
0.179,19.107,5.135,5.125,91.595,-122.671,-160.538
0.181,19.117,5.134,5.131,91.594,-122.680,-160.533
0.182,19.128,5.135,5.136,91.596,-122.691,-160.530
0.184,19.141,5.139,5.143,91.604,-122.702,-160.531
0.185,19.162,5.145,5.150,91.620,-122.714,-160.537
0.186,19.192,5.152,5.157,91.645,-122.726,-160.549
0.188,19.232,5.159,5.163,91.678,-122.740,-160.566
0.189,19.279,5.167,5.169,91.718,-122.753,-160.588
0.191,19.331,5.173,5.174,91.762,-122.765,-160.612
0.192,19.386,5.178,5.178,91.809,-122.777,-160.639
0.194,19.442,5.180,5.180,91.857,-122.786,-160.666
0.195,19.498,5.181,5.181,91.905,-122.794,-160.693
0.196,19.550,5.180,5.181,91.950,-122.799,-160.718
0.198,19.598,5.180,5.181,91.992,-122.801,-160.742
0.199,19.639,5.180,5.181,92.028,-122.800,-160.761
0.201,19.672,5.181,5.182,92.057,-122.794,-160.776
0.202,19.698,5.184,5.184,92.078,-122.785,-160.787
0.203,19.719,5.190,5.187,92.095,-122.775,-160.796
0.205,19.739,5.196,5.191,92.109,-122.766,-160.807
0.206,19.760,5.201,5.193,92.123,-122.762,-160.821
0.208,19.787,5.202,5.192,92.139,-122.763,-160.843
0.209,19.826,5.197,5.188,92.160,-122.773,-160.874
0.210,19.882,5.185,5.178,92.189,-122.795,-160.918
0.212,19.960,5.163,5.162,92.226,-122.829,-160.977
0.213,20.065,5.129,5.137,92.276,-122.880,-161.054
0.215,20.201,5.086,5.106,92.340,-122.949,-161.152
0.216,20.372,5.034,5.069,92.421,-123.038,-161.273
0.218,20.577,4.979,5.027,92.518,-123.148,-161.417
0.219,20.810,4.921,4.982,92.629,-123.273,-161.580
0.220,21.065,4.864,4.935,92.749,-123.410,-161.757
0.222,21.334,4.811,4.888,92.876,-123.555,-161.946
0.223,21.613,4.764,4.840,93.006,-123.704,-162.141
0.225,21.893,4.724,4.795,93.137,-123.853,-162.340
0.226,22.169,4.692,4.752,93.265,-123.999,-162.537
0.227,22.435,4.666,4.714,93.386,-124.136,-162.729
0.229,22.683,4.647,4.681,93.499,-124.261,-162.912
0.230,22.909,4.635,4.654,93.598,-124.370,-163.082
0.232,23.105,4.629,4.634,93.682,-124.460,-163.235
0.233,23.272,4.629,4.624,93.751,-124.529,-163.371
0.234,23.415,4.635,4.621,93.805,-124.582,-163.491
0.236,23.537,4.645,4.626,93.848,-124.621,-163.600
0.237,23.644,4.658,4.638,93.880,-124.648,-163.698
0.239,23.740,4.673,4.653,93.905,-124.666,-163.789
0.240,23.828,4.688,4.673,93.923,-124.678,-163.875
0.242,23.913,4.701,4.695,93.937,-124.687,-163.957
0.243,23.996,4.713,4.718,93.950,-124.695,-164.039
0.244,24.082,4.722,4.741,93.961,-124.705,-164.124
0.246,24.173,4.730,4.764,93.975,-124.720,-164.212
0.247,24.272,4.736,4.787,93.992,-124.742,-164.307
0.249,24.379,4.744,4.810,94.013,-124.772,-164.408
0.250,24.492,4.752,4.833,94.036,-124.808,-164.513
0.251,24.609,4.763,4.855,94.062,-124.848,-164.620
0.253,24.727,4.778,4.877,94.089,-124.891,-164.726
0.254,24.844,4.797,4.898,94.117,-124.935,-164.831
0.256,24.957,4.818,4.917,94.144,-124.980,-164.931
0.257,25.064,4.841,4.936,94.171,-125.024,-165.025
0.258,25.162,4.863,4.952,94.196,-125.065,-165.110
0.260,25.249,4.884,4.967,94.218,-125.101,-165.186
0.261,25.322,4.903,4.979,94.237,-125.132,-165.248
0.263,25.378,4.917,4.988,94.252,-125.157,-165.297
0.264,25.419,4.926,4.994,94.264,-125.174,-165.333
0.266,25.447,4.931,4.998,94.272,-125.187,-165.357
0.267,25.464,4.932,4.999,94.278,-125.194,-165.371
0.268,25.472,4.931,4.999,94.282,-125.198,-165.376
0.270,25.475,4.928,4.998,94.285,-125.198,-165.376
0.271,25.481,4.924,4.996,94.287,-125.197,-165.371
0.273,25.490,4.921,4.993,94.289,-125.195,-165.363
0.274,25.500,4.919,4.991,94.291,-125.192,-165.353
0.275,25.509,4.918,4.989,94.294,-125.190,-165.345
0.277,25.517,4.918,4.987,94.299,-125.189,-165.338
0.278,25.525,4.919,4.985,94.306,-125.191,-165.336
0.280,25.534,4.920,4.984,94.315,-125.195,-165.336
0.281,25.545,4.921,4.982,94.324,-125.200,-165.340
0.282,25.557,4.922,4.980,94.332,-125.205,-165.346
0.284,25.569,4.923,4.979,94.340,-125.210,-165.354
0.285,25.580,4.924,4.977,94.346,-125.215,-165.362
0.287,25.590,4.925,4.977,94.349,-125.217,-165.371
0.288,25.598,4.926,4.978,94.348,-125.218,-165.380
0.290,25.608,4.928,4.982,94.343,-125.216,-165.387
0.291,25.621,4.931,4.989,94.332,-125.210,-165.394
0.292,25.641,4.934,4.999,94.316,-125.200,-165.397
0.294,25.667,4.939,5.014,94.293,-125.186,-165.399
0.295,25.698,4.945,5.031,94.268,-125.169,-165.398
0.297,25.728,4.949,5.048,94.243,-125.152,-165.395
0.298,25.753,4.952,5.062,94.224,-125.138,-165.392
0.299,25.768,4.952,5.071,94.212,-125.128,-165.388
0.301,25.773,4.947,5.072,94.213,-125.125,-165.384
0.302,25.792,4.936,5.061,94.231,-125.131,-165.381
0.304,25.833,4.919,5.037,94.268,-125.149,-165.380
0.305,25.902,4.894,4.998,94.329,-125.181,-165.380
0.306,26.003,4.863,4.949,94.418,-125.229,-165.383
0.308,26.141,4.828,4.893,94.538,-125.296,-165.390
0.309,26.316,4.788,4.832,94.691,-125.382,-165.400
0.311,26.524,4.745,4.769,94.870,-125.485,-165.414
0.312,26.755,4.701,4.709,95.070,-125.600,-165.431
0.314,27.003,4.656,4.654,95.283,-125.724,-165.453
0.315,27.259,4.611,4.605,95.503,-125.854,-165.478
0.316,27.517,4.567,4.564,95.722,-125.985,-165.508
0.318,27.768,4.525,4.529,95.935,-126.115,-165.542
0.319,28.005,4.485,4.501,96.133,-126.238,-165.581
0.321,28.221,4.449,4.478,96.311,-126.353,-165.623
0.322,28.408,4.416,4.462,96.462,-126.454,-165.671
0.323,28.561,4.388,4.450,96.578,-126.538,-165.723
0.325,28.680,4.364,4.443,96.658,-126.605,-165.779
0.326,28.776,4.344,4.439,96.707,-126.661,-165.841
0.328,28.862,4.325,4.434,96.732,-126.710,-165.908
0.329,28.950,4.306,4.427,96.739,-126.758,-165.980
0.331,29.046,4.284,4.415,96.735,-126.813,-166.059
0.332,29.154,4.259,4.395,96.726,-126.879,-166.144
0.333,29.278,4.229,4.365,96.720,-126.963,-166.235
0.335,29.424,4.192,4.325,96.722,-127.071,-166.334
0.336,29.598,4.154,4.278,96.739,-127.207,-166.440
0.338,29.808,4.118,4.231,96.779,-127.379,-166.553
0.339,30.062,4.089,4.190,96.846,-127.593,-166.675
0.340,30.363,4.073,4.161,96.944,-127.847,-166.803
0.342,30.703,4.074,4.151,97.066,-128.134,-166.936
0.343,31.070,4.097,4.166,97.207,-128.445,-167.073
0.345,31.456,4.146,4.209,97.362,-128.771,-167.209
0.346,31.849,4.217,4.278,97.525,-129.102,-167.344
0.347,32.239,4.304,4.364,97.690,-129.430,-167.474
0.349,32.616,4.399,4.460,97.852,-129.747,-167.598
0.350,32.967,4.496,4.558,98.005,-130.042,-167.713
0.352,33.284,4.589,4.651,98.143,-130.308,-167.818
0.353,33.555,4.670,4.730,98.260,-130.534,-167.908
0.355,33.770,4.733,4.788,98.352,-130.713,-167.984
0.356,33.927,4.778,4.826,98.417,-130.843,-168.043
0.357,34.035,4.809,4.848,98.458,-130.932,-168.089
0.359,34.103,4.829,4.859,98.479,-130.987,-168.124
0.360,34.142,4.842,4.861,98.483,-131.015,-168.150
0.362,34.165,4.850,4.861,98.474,-131.025,-168.169
0.363,34.190,4.858,4.861,98.455,-131.023,-168.185
0.364,34.218,4.869,4.866,98.430,-131.017,-168.198
0.366,34.249,4.884,4.878,98.403,-131.014,-168.211
0.367,34.281,4.904,4.897,98.376,-131.023,-168.227
0.369,34.322,4.928,4.922,98.354,-131.050,-168.249
0.370,34.383,4.957,4.953,98.340,-131.102,-168.277
0.371,34.470,4.991,4.988,98.335,-131.181,-168.312
0.373,34.577,5.030,5.029,98.336,-131.281,-168.352
0.374,34.701,5.074,5.074,98.344,-131.397,-168.396
0.376,34.837,5.122,5.123,98.356,-131.523,-168.441
0.377,34.978,5.171,5.173,98.371,-131.656,-168.487
0.379,35.120,5.219,5.222,98.388,-131.790,-168.530
0.380,35.256,5.263,5.269,98.405,-131.920,-168.569
0.381,35.382,5.302,5.311,98.422,-132.040,-168.603
0.383,35.493,5.331,5.346,98.436,-132.147,-168.629
0.384,35.582,5.349,5.373,98.446,-132.233,-168.645
0.386,35.645,5.355,5.390,98.452,-132.297,-168.651
0.387,35.687,5.351,5.398,98.454,-132.338,-168.647
0.388,35.714,5.339,5.398,98.456,-132.363,-168.637
0.390,35.735,5.321,5.392,98.460,-132.378,-168.625
0.391,35.754,5.300,5.379,98.470,-132.389,-168.612
0.393,35.777,5.279,5.362,98.488,-132.401,-168.604
0.394,35.813,5.258,5.341,98.518,-132.421,-168.602
0.395,35.868,5.242,5.318,98.562,-132.453,-168.610
0.397,35.951,5.231,5.296,98.624,-132.505,-168.633
0.398,36.070,5.226,5.277,98.705,-132.581,-168.672
0.400,36.231,5.229,5.266,98.810,-132.688,-168.731
0.401,36.441,5.240,5.264,98.941,-132.830,-168.813
0.403,36.694,5.263,5.275,99.094,-133.004,-168.916
0.404,36.982,5.296,5.303,99.264,-133.203,-169.035
0.405,37.293,5.342,5.349,99.446,-133.420,-169.165
0.407,37.619,5.397,5.408,99.633,-133.648,-169.303
0.408,37.949,5.458,5.477,99.821,-133.880,-169.443
0.410,38.273,5.521,5.549,100.004,-134.110,-169.581
0.411,38.582,5.582,5.618,100.177,-134.329,-169.713
0.412,38.865,5.637,5.680,100.334,-134.532,-169.834
0.414,39.113,5.683,5.729,100.469,-134.710,-169.939
0.415,39.315,5.717,5.760,100.577,-134.858,-170.025
0.417,39.465,5.739,5.774,100.654,-134.970,-170.088
0.418,39.565,5.751,5.775,100.702,-135.047,-170.131
0.419,39.626,5.755,5.769,100.726,-135.095,-170.159
0.421,39.656,5.754,5.758,100.731,-135.118,-170.178
0.422,39.673,5.749,5.748,100.722,-135.120,-170.192
0.424,39.701,5.743,5.741,100.703,-135.107,-170.207
0.425,39.741,5.738,5.743,100.680,-135.082,-170.229
0.427,39.792,5.736,5.755,100.656,-135.051,-170.262
0.428,39.855,5.737,5.774,100.636,-135.018,-170.312
0.429,39.934,5.742,5.800,100.627,-134.988,-170.384
0.431,40.035,5.752,5.831,100.631,-134.966,-170.483
0.432,40.168,5.769,5.867,100.653,-134.954,-170.613
0.434,40.330,5.793,5.906,100.691,-134.954,-170.771
0.435,40.518,5.824,5.946,100.743,-134.964,-170.951
0.436,40.727,5.863,5.988,100.805,-134.984,-171.150
0.438,40.952,5.908,6.030,100.876,-135.014,-171.362
0.439,41.189,5.955,6.073,100.953,-135.051,-171.582
0.441,41.432,6.002,6.116,101.034,-135.096,-171.807
0.442,41.676,6.048,6.160,101.115,-135.149,-172.031
0.444,41.915,6.089,6.202,101.194,-135.207,-172.249
0.445,42.146,6.124,6.245,101.268,-135.271,-172.458
0.446,42.362,6.152,6.286,101.336,-135.340,-172.651
0.448,42.561,6.175,6.326,101.395,-135.413,-172.826
0.449,42.743,6.193,6.363,101.445,-135.489,-172.984
0.451,42.909,6.210,6.396,101.487,-135.567,-173.125
0.452,43.062,6.227,6.424,101.522,-135.645,-173.251
0.453,43.202,6.246,6.448,101.552,-135.723,-173.364
0.455,43.329,6.268,6.464,101.575,-135.798,-173.464
0.456,43.445,6.295,6.475,101.594,-135.871,-173.553
0.458,43.551,6.326,6.480,101.609,-135.939,-173.632
0.459,43.646,6.359,6.481,101.620,-136.002,-173.702
0.460,43.731,6.391,6.480,101.629,-136.058,-173.765
0.462,43.806,6.423,6.478,101.637,-136.106,-173.823
0.463,43.872,6.452,6.477,101.643,-136.146,-173.875
0.465,43.930,6.477,6.479,101.647,-136.178,-173.923
0.466,43.981,6.496,6.484,101.651,-136.204,-173.967
0.468,44.026,6.510,6.492,101.654,-136.223,-174.008
0.469,44.067,6.521,6.504,101.656,-136.237,-174.046
0.470,44.105,6.528,6.519,101.658,-136.247,-174.083
0.472,44.141,6.533,6.536,101.659,-136.253,-174.118
0.473,44.176,6.536,6.556,101.659,-136.257,-174.153
0.475,44.211,6.539,6.577,101.660,-136.260,-174.188
0.476,44.246,6.542,6.601,101.659,-136.261,-174.223
0.477,44.282,6.546,6.625,101.659,-136.262,-174.259
0.479,44.319,6.549,6.649,101.659,-136.264,-174.296
0.480,44.358,6.553,6.672,101.658,-136.267,-174.334
0.482,44.397,6.556,6.693,101.656,-136.270,-174.373
0.483,44.437,6.560,6.711,101.654,-136.274,-174.413
0.484,44.476,6.563,6.724,101.651,-136.279,-174.452
0.486,44.516,6.565,6.733,101.646,-136.284,-174.491
0.487,44.555,6.568,6.736,101.640,-136.289,-174.529
0.489,44.593,6.570,6.736,101.632,-136.296,-174.566
0.490,44.631,6.574,6.733,101.623,-136.302,-174.602
0.492,44.668,6.579,6.728,101.611,-136.310,-174.636
0.493,44.704,6.586,6.721,101.596,-136.318,-174.668
0.494,44.739,6.595,6.714,101.581,-136.326,-174.698
0.496,44.774,6.607,6.708,101.566,-136.333,-174.730
0.497,44.810,6.621,6.702,101.556,-136.340,-174.763
0.499,44.848,6.632,6.694,101.552,-136.344,-174.801
0.500,44.893,6.640,6.683,101.558,-136.346,-174.846
0.501,44.949,6.639,6.668,101.575,-136.344,-174.899
0.503,45.021,6.628,6.646,101.607,-136.338,-174.963
0.504,45.112,6.604,6.617,101.656,-136.328,-175.039
0.506,45.227,6.563,6.579,101.724,-136.311,-175.130
0.507,45.369,6.505,6.531,101.815,-136.289,-175.237
0.508,45.542,6.435,6.477,101.931,-136.259,-175.362
0.510,45.745,6.357,6.417,102.070,-136.223,-175.505
0.511,45.970,6.273,6.354,102.228,-136.181,-175.660
0.513,46.212,6.188,6.291,102.399,-136.136,-175.825
0.514,46.464,6.107,6.228,102.579,-136.088,-175.995
0.516,46.720,6.032,6.168,102.763,-136.039,-176.166
0.517,46.974,5.967,6.113,102.946,-135.991,-176.335
0.518,47.218,5.910,6.063,103.122,-135.944,-176.497
0.520,47.446,5.863,6.018,103.288,-135.899,-176.648
0.521,47.653,5.823,5.978,103.438,-135.860,-176.785
0.523,47.831,5.790,5.945,103.566,-135.826,-176.904
0.524,47.975,5.765,5.917,103.670,-135.799,-177.000
0.525,48.085,5.746,5.896,103.748,-135.779,-177.074
0.527,48.165,5.732,5.882,103.805,-135.765,-177.129
0.528,48.219,5.723,5.873,103.842,-135.756,-177.167
0.530,48.253,5.718,5.869,103.865,-135.752,-177.191
0.531,48.270,5.716,5.868,103.876,-135.750,-177.204
0.532,48.275,5.715,5.869,103.879,-135.751,-177.209
0.534,48.279,5.715,5.872,103.876,-135.753,-177.207
0.535,48.286,5.716,5.875,103.872,-135.756,-177.202
0.537,48.292,5.715,5.878,103.869,-135.757,-177.197
0.538,48.296,5.712,5.878,103.871,-135.758,-177.194
0.540,48.307,5.707,5.876,103.881,-135.756,-177.195
0.541,48.328,5.699,5.871,103.901,-135.753,-177.204
0.542,48.363,5.687,5.861,103.931,-135.750,-177.221
0.544,48.412,5.671,5.846,103.971,-135.750,-177.249
0.545,48.477,5.650,5.825,104.023,-135.753,-177.289
0.547,48.562,5.623,5.797,104.086,-135.763,-177.344
0.548,48.667,5.593,5.763,104.161,-135.781,-177.416
0.549,48.795,5.560,5.725,104.249,-135.808,-177.506
0.551,48.950,5.528,5.686,104.350,-135.846,-177.616
0.552,49.132,5.497,5.646,104.464,-135.898,-177.748
0.554,49.346,5.470,5.608,104.593,-135.965,-177.904
0.555,49.591,5.449,5.574,104.737,-136.048,-178.086
0.556,49.866,5.436,5.544,104.894,-136.146,-178.289
0.558,50.165,5.431,5.520,105.065,-136.254,-178.508
0.559,50.482,5.430,5.501,105.250,-136.371,-178.738
