"T","Distance","Radius","FreeRadius","X","Y","Z"
0.000,0.000,2.573,2.573,219.666,183.896,214.848
0.001,0.164,2.705,2.705,219.515,183.842,214.813
0.003,0.327,2.835,2.835,219.366,183.788,214.777
0.004,0.487,2.962,2.962,219.218,183.735,214.743
0.005,0.644,3.085,3.085,219.075,183.681,214.709
0.006,0.795,3.201,3.201,218.937,183.628,214.677
0.008,0.940,3.309,3.309,218.806,183.576,214.646
0.009,1.077,3.409,3.409,218.682,183.524,214.617
0.010,1.206,3.497,3.497,218.567,183.472,214.590
0.011,1.325,3.573,3.573,218.463,183.421,214.565
0.013,1.432,3.638,3.638,218.371,183.371,214.543
0.014,1.527,3.693,3.693,218.291,183.322,214.525
0.015,1.610,3.738,3.738,218.226,183.274,214.509
0.016,1.680,3.776,3.776,218.175,183.227,214.497
0.018,1.740,3.806,3.806,218.139,183.180,214.488
0.019,1.792,3.831,3.831,218.115,183.134,214.481
0.020,1.842,3.851,3.851,218.102,183.087,214.475
0.021,1.891,3.867,3.867,218.098,183.038,214.469
0.023,1.941,3.882,3.882,218.101,182.988,214.463
0.024,1.995,3.894,3.894,218.109,182.936,214.455
0.025,2.052,3.906,3.906,218.122,182.881,214.445
0.026,2.114,3.918,3.918,218.136,182.822,214.432
0.028,2.180,3.932,3.932,218.150,182.760,214.415
0.029,2.252,3.948,3.948,218.163,182.693,214.392
0.030,2.330,3.967,3.967,218.173,182.621,214.365
0.031,2.414,3.990,3.990,218.179,182.544,214.330
0.033,2.506,4.016,4.016,218.179,182.462,214.290
0.034,2.601,4.046,4.046,218.176,182.377,214.246
0.035,2.700,4.077,4.077,218.169,182.290,214.199
0.036,2.801,4.108,4.108,218.160,182.203,214.150
0.038,2.901,4.140,4.140,218.148,182.117,214.100
0.039,2.998,4.171,4.171,218.134,182.033,214.052
0.040,3.092,4.199,4.199,218.120,181.954,214.005
0.041,3.179,4.225,4.225,218.105,181.879,213.962
0.043,3.258,4.247,4.247,218.090,181.812,213.924
0.044,3.328,4.267,4.267,218.075,181.752,213.891
0.045,3.385,4.283,4.283,218.062,181.702,213.866
0.046,3.430,4.297,4.297,218.051,181.662,213.849
0.048,3.462,4.308,4.308,218.041,181.633,213.840
0.049,3.485,4.316,4.316,218.033,181.612,213.837
0.050,3.500,4.321,4.321,218.027,181.598,213.839
0.051,3.511,4.323,4.323,218.022,181.589,213.843
0.053,3.520,4.324,4.324,218.019,181.584,213.849
0.054,3.527,4.323,4.323,218.016,181.582,213.855
0.055,3.532,4.322,4.322,218.015,181.580,213.860
0.056,3.534,4.322,4.322,218.014,181.577,213.861
0.058,3.540,4.323,4.323,218.014,181.573,213.857
0.059,3.553,4.326,4.326,218.015,181.564,213.847
0.060,3.576,4.332,4.332,218.016,181.551,213.829
0.061,3.610,4.343,4.343,218.017,181.530,213.802
0.063,3.655,4.356,4.356,218.018,181.503,213.766
0.064,3.709,4.373,4.373,218.018,181.469,213.723
0.065,3.771,4.391,4.391,218.015,181.430,213.676
0.066,3.838,4.410,4.410,218.011,181.385,213.626
0.068,3.910,4.429,4.429,218.003,181.336,213.574
0.069,3.984,4.447,4.447,217.991,181.283,213.524
0.070,4.060,4.463,4.463,217.974,181.226,213.476
0.072,4.138,4.476,4.476,217.951,181.166,213.433
0.073,4.215,4.486,4.486,217.923,181.104,213.397
0.074,4.294,4.493,4.493,217.887,181.039,213.369
0.075,4.375,4.499,4.499,217.843,180.974,213.351
0.077,4.459,4.502,4.502,217.790,180.907,213.346
0.078,4.550,4.504,4.504,217.730,180.841,213.353
0.079,4.646,4.504,4.504,217.664,180.774,213.369
0.080,4.747,4.504,4.504,217.592,180.707,213.395
0.082,4.853,4.504,4.504,217.517,180.640,213.428
0.083,4.961,4.503,4.503,217.440,180.574,213.466
0.084,5.071,4.501,4.501,217.362,180.508,213.509
0.085,5.181,4.497,4.497,217.286,180.444,213.554
0.087,5.289,4.491,4.491,217.212,180.380,213.599
0.088,5.392,4.481,4.481,217.142,180.318,213.644
0.089,5.491,4.469,4.469,217.078,180.257,213.686
0.090,5.581,4.452,4.452,217.020,180.198,213.724
0.092,5.663,4.431,4.431,216.971,180.141,213.757
0.093,5.737,4.405,4.405,216.932,180.085,213.784
0.094,5.805,4.377,4.377,216.901,180.028,213.805
0.095,5.870,4.347,4.347,216.878,179.969,213.821
0.097,5.936,4.317,4.317,216.864,179.905,213.832
0.098,6.006,4.288,4.288,216.857,179.836,213.840
0.099,6.083,4.262,4.262,216.858,179.759,213.844
0.100,6.170,4.239,4.239,216.866,179.673,213.846
0.102,6.268,4.222,4.222,216.881,179.575,213.845
0.103,6.381,4.211,4.211,216.903,179.465,213.842
0.104,6.509,4.204,4.204,216.931,179.340,213.838
0.105,6.655,4.202,4.202,216.965,179.199,213.834
0.107,6.819,4.205,4.205,217.004,179.039,213.829
0.108,7.001,4.210,4.210,217.049,178.862,213.825
0.109,7.198,4.219,4.219,217.098,178.672,213.821
0.110,7.406,4.230,4.230,217.149,178.470,213.817
0.112,7.621,4.242,4.242,217.203,178.262,213.813
0.113,7.840,4.256,4.256,217.258,178.050,213.810
0.114,8.059,4.272,4.271,217.312,177.838,213.806
0.115,8.274,4.287,4.287,217.366,177.630,213.803
0.117,8.482,4.303,4.303,217.417,177.428,213.799
0.118,8.679,4.319,4.319,217.466,177.237,213.796
0.119,8.862,4.335,4.335,217.510,177.060,213.793
0.120,9.027,4.350,4.350,217.550,176.900,213.791
0.122,9.170,4.365,4.365,217.583,176.761,213.788
0.123,9.290,4.378,4.378,217.609,176.643,213.785
0.124,9.390,4.390,4.390,217.630,176.546,213.783
0.125,9.472,4.401,4.401,217.644,176.465,213.781
0.127,9.539,4.412,4.412,217.652,176.399,213.778
0.128,9.593,4.422,4.422,217.655,176.345,213.776
0.129,9.637,4.432,4.432,217.652,176.301,213.775
0.130,9.675,4.441,4.441,217.644,176.264,213.773
0.132,9.710,4.451,4.451,217.632,176.232,213.771
0.133,9.744,4.460,4.460,217.614,176.202,213.770
0.134,9.780,4.469,4.469,217.593,176.173,213.769
0.136,9.821,4.479,4.479,217.567,176.141,213.768
0.137,9.869,4.488,4.488,217.538,176.104,213.767
0.138,9.924,4.498,4.498,217.504,176.060,213.766
0.139,9.987,4.508,4.507,217.466,176.009,213.765
0.141,10.061,4.517,4.517,217.422,175.951,213.764
0.142,10.145,4.527,4.527,217.371,175.883,213.761
0.143,10.241,4.538,4.538,217.312,175.807,213.758
0.144,10.350,4.550,4.551,217.244,175.722,213.754
0.146,10.473,4.567,4.567,217.167,175.627,213.748
0.147,10.611,4.590,4.590,217.079,175.521,213.741
0.148,10.765,4.620,4.621,216.979,175.404,213.731
0.149,10.937,4.660,4.660,216.867,175.275,213.719
0.151,11.126,4.711,4.711,216.741,175.134,213.705
0.152,11.335,4.774,4.774,216.601,174.980,213.688
0.153,11.562,4.850,4.850,216.446,174.815,213.667
0.154,11.804,4.937,4.937,216.280,174.639,213.645
0.156,12.057,5.031,5.031,216.107,174.458,213.621
0.157,12.315,5.130,5.130,215.928,174.273,213.595
0.158,12.574,5.231,5.231,215.749,174.089,213.569
0.159,12.830,5.331,5.331,215.571,173.907,213.542
0.161,13.078,5.427,5.427,215.398,173.731,213.516
0.162,13.314,5.517,5.517,215.233,173.564,213.490
0.163,13.533,5.597,5.598,215.080,173.409,213.466
0.164,13.731,5.669,5.670,214.942,173.269,213.444
0.166,13.903,5.731,5.733,214.821,173.147,213.425
0.167,14.045,5.784,5.787,214.723,173.047,213.408
0.168,14.155,5.829,5.833,214.647,172.969,213.395
0.169,14.234,5.865,5.869,214.592,172.912,213.385
0.171,14.288,5.892,5.897,214.555,172.873,213.377
0.172,14.319,5.910,5.915,214.535,172.850,213.372
0.173,14.332,5.921,5.925,214.528,172.840,213.369
0.174,14.336,5.924,5.928,214.531,172.840,213.368
0.176,14.350,5.922,5.926,214.543,172.849,213.368
0.177,14.373,5.918,5.920,214.560,172.862,213.369
0.178,14.399,5.911,5.913,214.581,172.879,213.370
0.179,14.426,5.904,5.906,214.602,172.896,213.372
0.181,14.450,5.899,5.900,214.620,172.911,213.374
0.182,14.467,5.898,5.898,214.635,172.921,213.375
0.183,14.476,5.900,5.900,214.642,172.925,213.375
0.184,14.479,5.906,5.905,214.644,172.923,213.375
0.186,14.485,5.914,5.913,214.642,172.917,213.375
0.187,14.496,5.922,5.921,214.635,172.908,213.374
0.188,14.509,5.928,5.927,214.627,172.898,213.372
0.189,14.523,5.932,5.931,214.618,172.887,213.371
0.191,14.536,5.931,5.931,214.609,172.879,213.369
0.192,14.546,5.925,5.925,214.601,172.873,213.367
0.193,14.552,5.911,5.912,214.595,172.872,213.365
0.194,14.557,5.894,5.894,214.594,172.877,213.363
0.196,14.569,5.874,5.875,214.597,172.888,213.361
0.197,14.592,5.854,5.856,214.606,172.909,213.359
0.198,14.625,5.838,5.839,214.621,172.938,213.358
0.199,14.665,5.827,5.828,214.641,172.974,213.356
0.201,14.709,5.825,5.826,214.662,173.011,213.354
0.202,14.750,5.833,5.833,214.683,173.047,213.351
0.203,14.784,5.854,5.852,214.700,173.076,213.346
0.205,14.808,5.883,5.880,214.710,173.096,213.339
0.206,14.819,5.916,5.912,214.711,173.102,213.329
0.207,14.840,5.949,5.944,214.700,173.090,213.316
0.208,14.885,5.977,5.972,214.675,173.056,213.300
0.210,14.961,5.995,5.990,214.632,172.997,213.279
0.211,15.073,5.998,5.995,214.569,172.908,213.254
0.212,15.225,5.982,5.981,214.484,172.785,213.223
0.213,15.422,5.943,5.947,214.374,172.626,213.187
0.215,15.660,5.883,5.895,214.242,172.432,213.146
0.216,15.933,5.807,5.828,214.092,172.208,213.102
0.217,16.237,5.718,5.752,213.928,171.957,213.055
0.218,16.565,5.621,5.671,213.755,171.683,213.007
0.220,16.913,5.519,5.590,213.575,171.389,212.958
0.221,17.274,5.416,5.513,213.394,171.079,212.910
0.222,17.645,5.317,5.444,213.215,170.758,212.864
0.223,18.020,5.224,5.387,213.042,170.428,212.821
0.225,18.395,5.140,5.343,212.878,170.094,212.781
0.226,18.763,5.064,5.309,212.729,169.759,212.747
0.227,19.121,4.998,5.283,212.598,169.426,212.718
0.228,19.466,4.942,5.264,212.488,169.101,212.697
0.230,19.796,4.898,5.250,212.400,168.783,212.681
0.231,20.113,4.864,5.240,212.331,168.473,212.671
0.232,20.417,4.843,5.231,212.280,168.174,212.665
0.233,20.708,4.835,5.223,212.245,167.886,212.660
0.235,20.985,4.838,5.214,212.225,167.609,212.658
0.236,21.249,4.850,5.205,212.218,167.345,212.655
0.237,21.500,4.868,5.194,212.223,167.094,212.651
0.238,21.737,4.892,5.183,212.237,166.858,212.645
0.240,21.959,4.918,5.169,212.260,166.637,212.635
0.241,22.166,4.944,5.154,212.290,166.433,212.620
0.242,22.357,4.969,5.137,212.325,166.246,212.599
0.243,22.533,4.990,5.118,212.363,166.077,212.571
0.245,22.694,5.006,5.098,212.403,165.925,212.536
0.246,22.843,5.018,5.077,212.443,165.788,212.494
0.247,22.981,5.025,5.056,212.480,165.663,212.447
0.248,23.110,5.027,5.038,212.513,165.549,212.395
0.250,23.233,5.025,5.021,212.539,165.444,212.339
0.251,23.349,5.017,5.009,212.557,165.345,212.280
0.252,23.462,5.004,5.001,212.565,165.251,212.217
0.253,23.574,4.986,4.999,212.561,165.159,212.153
0.255,23.688,4.963,5.000,212.542,165.068,212.088
0.256,23.807,4.937,5.005,212.508,164.975,212.023
0.257,23.935,4.908,5.009,212.455,164.878,211.958
0.258,24.076,4.877,5.011,212.382,164.776,211.893
0.260,24.231,4.846,5.008,212.290,164.669,211.830
0.261,24.396,4.815,4.999,212.182,164.558,211.769
0.262,24.571,4.786,4.981,212.062,164.447,211.710
0.263,24.752,4.759,4.952,211.930,164.336,211.653
0.265,24.937,4.734,4.914,211.792,164.227,211.598
0.266,25.121,4.711,4.869,211.648,164.123,211.546
0.267,25.303,4.690,4.820,211.503,164.025,211.497
0.269,25.480,4.670,4.770,211.359,163.935,211.451
0.270,25.647,4.650,4.722,211.218,163.855,211.409
0.271,25.803,4.630,4.679,211.084,163.787,211.370
0.272,25.943,4.610,4.644,210.959,163.732,211.334
0.274,26.067,4.589,4.618,210.846,163.693,211.303
0.275,26.174,4.567,4.603,210.745,163.669,211.276
0.276,26.270,4.545,4.596,210.653,163.655,211.253
0.277,26.357,4.524,4.594,210.568,163.650,211.233
0.279,26.439,4.503,4.595,210.488,163.649,211.217
0.280,26.518,4.484,4.595,210.411,163.651,211.203
0.281,26.596,4.466,4.594,210.334,163.652,211.193
0.282,26.675,4.452,4.589,210.254,163.648,211.184
0.284,26.760,4.440,4.576,210.171,163.637,211.178
0.285,26.853,4.431,4.557,210.080,163.616,211.174
0.286,26.958,4.426,4.535,209.981,163.582,211.172
0.287,27.080,4.425,4.512,209.870,163.531,211.171
0.289,27.222,4.429,4.491,209.746,163.461,211.171
0.290,27.387,4.436,4.476,209.608,163.372,211.172
0.291,27.572,4.448,4.468,209.457,163.265,211.172
0.292,27.776,4.465,4.472,209.293,163.144,211.170
0.294,27.997,4.487,4.489,209.117,163.010,211.165
0.295,28.232,4.514,4.520,208.930,162.867,211.157
0.296,28.481,4.547,4.563,208.734,162.715,211.143
0.297,28.740,4.585,4.616,208.528,162.559,211.123
0.299,29.009,4.627,4.676,208.313,162.399,211.096
0.300,29.285,4.675,4.742,208.091,162.240,211.061
0.301,29.567,4.728,4.811,207.862,162.082,211.016
0.302,29.853,4.786,4.882,207.626,161.928,210.960
0.304,30.143,4.849,4.952,207.386,161.781,210.893
0.305,30.435,4.916,5.020,207.142,161.642,210.815
0.306,30.726,4.986,5.086,206.897,161.509,210.728
0.307,31.015,5.057,5.150,206.655,161.383,210.633
0.309,31.299,5.126,5.212,206.418,161.261,210.533
0.310,31.576,5.194,5.272,206.190,161.145,210.430
0.311,31.842,5.257,5.330,205.972,161.033,210.326
0.312,32.095,5.315,5.387,205.769,160.924,210.223
0.314,32.332,5.366,5.441,205.582,160.817,210.122
0.315,32.551,5.409,5.493,205.415,160.713,210.027
0.316,32.749,5.445,5.543,205.272,160.610,209.938
0.317,32.925,5.475,5.590,205.154,160.507,209.858
0.319,33.078,5.500,5.633,205.064,160.404,209.789
0.320,33.211,5.520,5.673,205.004,160.300,209.731
0.321,33.330,5.538,5.708,204.969,160.196,209.684
0.322,33.443,5.553,5.739,204.958,160.091,209.646
0.324,33.553,5.568,5.766,204.967,159.985,209.615
0.325,33.664,5.581,5.787,204.992,159.879,209.592
0.326,33.780,5.595,5.804,205.032,159.772,209.574
0.327,33.899,5.609,5.818,205.083,159.665,209.560
0.329,34.022,5.625,5.829,205.141,159.557,209.549
0.330,34.148,5.642,5.838,205.204,159.449,209.539
0.331,34.276,5.662,5.847,205.270,159.340,209.530
0.332,34.403,5.685,5.856,205.334,159.230,209.521
0.334,34.529,5.711,5.865,205.393,159.120,209.510
0.335,34.652,5.740,5.875,205.447,159.010,209.496
0.336,34.772,5.772,5.887,205.495,158.901,209.479
0.338,34.889,5.804,5.899,205.538,158.793,209.462
0.339,35.002,5.834,5.912,205.575,158.689,209.443
0.340,35.110,5.862,5.925,205.608,158.588,209.423
0.341,35.211,5.885,5.939,205.637,158.493,209.402
0.343,35.306,5.902,5.954,205.661,158.404,209.382
0.344,35.393,5.912,5.968,205.683,158.321,209.363
0.345,35.472,5.914,5.982,205.701,158.247,209.345
0.346,35.541,5.909,5.996,205.716,158.182,209.328
0.348,35.599,5.900,6.010,205.729,158.127,209.313
0.349,35.645,5.887,6.022,205.740,158.084,209.301
0.350,35.680,5.874,6.033,205.749,158.052,209.291
0.351,35.706,5.861,6.043,205.756,158.028,209.284
0.353,35.725,5.850,6.051,205.760,158.010,209.279
0.354,35.740,5.843,6.057,205.761,157.996,209.276
0.355,35.754,5.841,6.060,205.758,157.982,209.275
0.356,35.771,5.845,6.063,205.751,157.966,209.276
0.358,35.795,5.853,6.067,205.740,157.945,209.279
0.359,35.828,5.867,6.071,205.723,157.917,209.282
0.360,35.872,5.886,6.079,205.701,157.879,209.287
0.361,35.931,5.909,6.090,205.673,157.828,209.293
0.363,36.006,5.938,6.107,205.639,157.761,209.299
0.364,36.100,5.971,6.130,205.598,157.677,209.306
0.365,36.215,6.009,6.159,205.549,157.573,209.313
0.366,36.348,6.051,6.195,205.495,157.452,209.321
0.368,36.494,6.095,6.235,205.436,157.318,209.328
0.369,36.652,6.140,6.279,205.373,157.174,209.335
0.370,36.816,6.187,6.324,205.307,157.023,209.342
0.371,36.985,6.233,6.370,205.240,156.868,209.348
0.373,37.155,6.278,6.416,205.172,156.713,209.354
0.374,37.322,6.321,6.461,205.104,156.560,209.359
0.375,37.483,6.361,6.502,205.038,156.414,209.363
0.376,37.634,6.398,6.541,204.975,156.276,209.366
0.378,37.773,6.432,6.577,204.915,156.151,209.368
0.379,37.896,6.464,6.610,204.861,156.041,209.369
0.380,38.001,6.493,6.640,204.811,155.949,209.368
0.381,38.089,6.520,6.668,204.767,155.872,209.365
0.383,38.163,6.545,6.693,204.728,155.809,209.361
0.384,38.226,6.567,6.715,204.694,155.757,209.355
0.385,38.280,6.588,6.735,204.664,155.713,209.347
0.386,38.326,6.607,6.753,204.638,155.675,209.337
0.388,38.368,6.624,6.769,204.616,155.641,209.326
0.389,38.409,6.640,6.784,204.598,155.608,209.312
0.390,38.449,6.655,6.799,204.582,155.575,209.296
0.391,38.493,6.669,6.815,204.569,155.537,209.278
0.393,38.542,6.682,6.831,204.558,155.494,209.258
0.394,38.599,6.694,6.849,204.550,155.442,209.235
0.395,38.666,6.706,6.869,204.543,155.380,209.210
0.396,38.742,6.719,6.890,204.537,155.309,209.183
0.398,38.825,6.731,6.912,204.533,155.231,209.155
0.399,38.914,6.744,6.933,204.529,155.147,209.127
0.400,39.007,6.757,6.954,204.526,155.058,209.098
0.402,39.103,6.772,6.972,204.523,154.967,209.070
0.403,39.199,6.788,6.989,204.519,154.875,209.043
0.404,39.294,6.806,7.002,204.515,154.784,209.018
0.405,39.386,6.825,7.011,204.510,154.694,208.995
0.407,39.474,6.846,7.017,204.504,154.609,208.975
0.408,39.556,6.867,7.020,204.497,154.529,208.959
0.409,39.631,6.888,7.022,204.488,154.455,208.946
0.410,39.697,6.907,7.023,204.477,154.390,208.939
0.412,39.756,6.924,7.024,204.464,154.333,208.935
0.413,39.810,6.938,7.026,204.450,154.282,208.936
0.414,39.858,6.948,7.029,204.435,154.236,208.940
0.415,39.904,6.954,7.035,204.419,154.193,208.947
0.417,39.947,6.956,7.042,204.404,154.154,208.957
0.418,39.989,6.954,7.049,204.389,154.116,208.969
0.419,40.031,6.950,7.056,204.375,154.079,208.982
0.420,40.074,6.943,7.062,204.363,154.040,208.997
0.422,40.119,6.935,7.066,204.353,154.000,209.013
0.423,40.166,6.926,7.067,204.344,153.956,209.029
0.424,40.217,6.918,7.063,204.339,153.908,209.045
0.425,40.273,6.909,7.055,204.337,153.855,209.060
0.427,40.332,6.901,7.042,204.338,153.797,209.075
0.428,40.394,6.894,7.026,204.341,153.737,209.089
0.429,40.456,6.886,7.007,204.348,153.677,209.102
0.430,40.516,6.878,6.987,204.357,153.619,209.113
0.432,40.572,6.870,6.966,204.369,153.564,209.122
0.433,40.624,6.860,6.946,204.383,153.515,209.129
0.434,40.669,6.850,6.927,204.399,153.473,209.133
0.435,40.707,6.838,6.910,204.417,153.440,209.136
0.437,40.736,6.826,6.896,204.437,153.419,209.135
0.438,40.760,6.815,6.886,204.459,153.411,209.131
0.439,40.785,6.805,6.880,204.482,153.417,209.124
0.440,40.820,6.798,6.880,204.507,153.441,209.113
0.442,40.866,6.796,6.886,204.531,153.477,209.099
0.443,40.917,6.799,6.898,204.555,153.519,209.084
0.444,40.968,6.808,6.919,204.576,153.563,209.068
0.445,41.013,6.825,6.947,204.593,153.602,209.054
0.447,41.047,6.846,6.979,204.605,153.631,209.041
0.448,41.063,6.865,7.010,204.610,153.643,209.031
0.449,41.074,6.879,7.033,204.608,153.633,209.026
0.450,41.114,6.882,7.044,204.596,153.595,209.027
0.452,41.190,6.869,7.035,204.574,153.523,209.034
0.453,41.307,6.836,7.002,204.539,153.412,209.049
0.454,41.473,6.776,6.938,204.491,153.255,209.074
0.455,41.692,6.687,6.840,204.429,153.048,209.109
0.457,41.962,6.570,6.709,204.354,152.793,209.153
0.458,42.274,6.430,6.552,204.269,152.497,209.206
0.459,42.621,6.275,6.377,204.177,152.168,209.267
0.460,42.995,6.110,6.191,204.081,151.813,209.334
0.462,43.389,5.940,6.001,203.984,151.438,209.407
0.463,43.795,5.771,5.814,203.890,151.050,209.483
0.464,44.205,5.610,5.636,203.801,150.658,209.563
0.465,44.613,5.462,5.476,203.720,150.267,209.644
0.467,45.009,5.329,5.334,203.651,149.885,209.726
0.468,45.388,5.210,5.210,203.596,149.519,209.807
0.469,45.742,5.108,5.104,203.558,149.176,209.886
0.471,46.065,5.020,5.016,203.541,148.863,209.963
0.472,46.356,4.947,4.944,203.543,148.581,210.036
0.473,46.618,4.890,4.888,203.563,148.330,210.105
0.474,46.852,4.848,4.847,203.597,148.107,210.169
0.476,47.060,4.821,4.822,203.643,147.913,210.227
0.477,47.244,4.808,4.809,203.698,147.745,210.280
0.478,47.407,4.806,4.808,203.761,147.602,210.326
0.479,47.549,4.813,4.815,203.828,147.483,210.365
0.481,47.671,4.827,4.829,203.897,147.387,210.396
0.482,47.775,4.845,4.846,203.964,147.312,210.419
0.483,47.861,4.864,4.865,204.029,147.257,210.434
0.484,47.930,4.883,4.883,204.087,147.220,210.438
0.486,47.984,4.899,4.899,204.137,147.201,210.433
0.487,48.027,4.911,4.910,204.178,147.196,210.420
0.488,48.065,4.918,4.917,204.210,147.201,210.401
0.489,48.099,4.922,4.920,204.236,147.211,210.380
0.491,48.128,4.920,4.919,204.254,147.221,210.360
0.492,48.150,4.914,4.913,204.267,147.227,210.344
0.493,48.162,4.903,4.902,204.275,147.224,210.334
0.494,48.179,4.887,4.887,204.279,147.207,210.335
0.496,48.216,4.866,4.866,204.280,147.173,210.350
0.497,48.281,4.841,4.842,204.278,147.116,210.380
0.498,48.379,4.815,4.817,204.276,147.032,210.430
0.499,48.516,4.790,4.793,204.272,146.916,210.503
0.501,48.697,4.769,4.772,204.270,146.764,210.601
0.502,48.921,4.754,4.757,204.267,146.577,210.724
0.503,49.180,4.748,4.750,204.266,146.361,210.867
0.504,49.465,4.753,4.754,204.267,146.123,211.025
0.506,49.769,4.773,4.771,204.269,145.869,211.193
0.507,50.084,4.806,4.801,204.272,145.607,211.366
0.508,50.400,4.849,4.841,204.278,145.343,211.540
0.509,50.710,4.898,4.888,204.286,145.083,211.710
0.511,51.007,4.951,4.940,204.296,144.834,211.870
0.512,51.280,5.004,4.992,204.309,144.603,212.016
