"T","Distance","Radius","FreeRadius","X","Y","Z"
0.000,0.000,3.859,3.859,218.423,219.302,203.263
0.001,0.157,3.955,3.955,218.332,219.239,203.151
0.003,0.313,4.050,4.050,218.243,219.177,203.040
0.004,0.466,4.141,4.141,218.155,219.114,202.931
0.006,0.614,4.227,4.227,218.071,219.052,202.826
0.007,0.756,4.307,4.307,217.992,218.991,202.726
0.009,0.890,4.378,4.378,217.918,218.929,202.632
0.010,1.014,4.438,4.438,217.852,218.869,202.546
0.012,1.129,4.488,4.488,217.794,218.808,202.468
0.013,1.232,4.529,4.529,217.745,218.749,202.400
0.015,1.322,4.563,4.563,217.707,218.690,202.343
0.016,1.400,4.591,4.591,217.681,218.633,202.298
0.018,1.467,4.616,4.616,217.666,218.576,202.265
0.019,1.525,4.640,4.640,217.661,218.522,202.243
0.021,1.579,4.664,4.664,217.665,218.470,202.231
0.022,1.628,4.689,4.689,217.674,218.422,202.226
0.024,1.674,4.715,4.715,217.687,218.378,202.226
0.025,1.716,4.739,4.739,217.702,218.339,202.231
0.027,1.753,4.761,4.761,217.716,218.306,202.238
0.028,1.783,4.779,4.779,217.729,218.279,202.246
0.030,1.805,4.791,4.791,217.738,218.260,202.252
0.031,1.817,4.796,4.796,217.740,218.250,202.256
0.033,1.823,4.796,4.796,217.734,218.248,202.255
0.034,1.837,4.791,4.791,217.721,218.253,202.250
0.036,1.859,4.785,4.785,217.704,218.263,202.243
0.037,1.882,4.779,4.779,217.686,218.275,202.234
0.039,1.903,4.775,4.775,217.669,218.286,202.226
0.040,1.918,4.776,4.776,217.658,218.293,202.220
0.042,1.923,4.783,4.783,217.654,218.292,202.217
0.043,1.936,4.797,4.797,217.661,218.282,202.220
0.045,1.968,4.818,4.818,217.681,218.258,202.229
0.046,2.025,4.846,4.846,217.718,218.219,202.247
0.047,2.111,4.880,4.880,217.775,218.161,202.274
0.049,2.229,4.921,4.921,217.854,218.082,202.312
0.050,2.375,4.969,4.969,217.952,217.984,202.361
0.052,2.546,5.022,5.022,218.063,217.870,202.420
0.053,2.733,5.077,5.077,218.184,217.743,202.486
0.055,2.934,5.132,5.132,218.310,217.605,202.561
0.056,3.141,5.181,5.181,218.436,217.461,202.641
0.058,3.351,5.222,5.222,218.557,217.313,202.727
0.059,3.557,5.249,5.249,218.669,217.165,202.817
0.061,3.757,5.260,5.260,218.767,217.018,202.910
0.062,3.944,5.253,5.253,218.846,216.877,203.004
0.064,4.117,5.231,5.231,218.901,216.744,203.100
0.065,4.276,5.201,5.201,218.931,216.622,203.197
0.067,4.424,5.166,5.166,218.938,216.509,203.293
0.068,4.568,5.131,5.131,218.926,216.404,203.390
0.070,4.708,5.102,5.102,218.899,216.307,203.488
0.071,4.848,5.083,5.083,218.859,216.216,203.587
0.073,4.988,5.077,5.077,218.811,216.131,203.686
0.074,5.128,5.082,5.082,218.758,216.050,203.788
0.076,5.268,5.094,5.094,218.704,215.972,203.890
0.077,5.407,5.111,5.111,218.653,215.896,203.995
0.079,5.544,5.132,5.132,218.607,215.821,204.101
0.080,5.681,5.153,5.153,218.571,215.746,204.209
0.082,5.817,5.172,5.172,218.546,215.671,204.319
0.083,5.950,5.188,5.188,218.530,215.597,204.429
0.085,6.081,5.199,5.199,218.522,215.524,204.538
0.086,6.208,5.205,5.205,218.521,215.454,204.644
0.088,6.330,5.205,5.205,218.525,215.387,204.745
0.089,6.444,5.198,5.198,218.534,215.324,204.841
0.091,6.551,5.183,5.183,218.546,215.266,204.929
0.092,6.648,5.160,5.160,218.560,215.214,205.009
0.093,6.732,5.130,5.130,218.575,215.168,205.079
0.095,6.803,5.096,5.096,218.588,215.130,205.138
0.096,6.860,5.061,5.061,218.600,215.100,205.184
0.098,6.902,5.029,5.029,218.609,215.076,205.218
0.099,6.933,5.002,5.002,218.616,215.057,205.241
0.101,6.957,4.983,4.983,218.620,215.040,205.257
0.102,6.976,4.975,4.975,218.622,215.023,205.266
0.104,6.997,4.976,4.976,218.620,215.003,205.270
0.105,7.021,4.984,4.984,218.615,214.979,205.271
0.107,7.053,4.995,4.995,218.607,214.948,205.270
0.108,7.095,5.008,5.008,218.596,214.908,205.270
0.110,7.149,5.020,5.020,218.581,214.856,205.271
0.111,7.217,5.028,5.028,218.563,214.791,205.276
0.113,7.301,5.030,5.030,218.540,214.710,205.287
0.114,7.402,5.028,5.028,218.516,214.613,205.302
0.116,7.522,5.022,5.022,218.490,214.498,205.322
0.117,7.660,5.013,5.013,218.464,214.365,205.347
0.119,7.817,5.002,5.002,218.440,214.212,205.377
0.120,7.995,4.990,4.990,218.419,214.039,205.412
0.122,8.194,4.978,4.978,218.401,213.844,205.450
0.123,8.416,4.967,4.967,218.389,213.628,205.493
0.125,8.661,4.961,4.961,218.383,213.387,205.541
0.126,8.930,4.961,4.961,218.385,213.123,205.592
0.128,9.225,4.971,4.971,218.396,212.834,205.648
0.129,9.543,4.992,4.992,218.416,212.522,205.706
0.131,9.877,5.027,5.027,218.443,212.194,205.767
0.132,10.222,5.079,5.079,218.476,211.857,205.830
0.134,10.569,5.146,5.146,218.512,211.517,205.893
0.135,10.912,5.221,5.221,218.551,211.182,205.956
0.136,11.244,5.297,5.297,218.590,210.858,206.017
0.138,11.558,5.368,5.368,218.628,210.553,206.076
0.139,11.846,5.427,5.427,218.663,210.272,206.131
0.141,12.101,5.468,5.468,218.693,210.023,206.181
0.142,12.318,5.484,5.484,218.716,209.813,206.226
0.144,12.488,5.478,5.478,218.731,209.647,206.265
0.145,12.615,5.456,5.456,218.738,209.525,206.298
0.147,12.705,5.426,5.426,218.737,209.440,206.326
0.148,12.765,5.393,5.393,218.729,209.386,206.351
0.150,12.804,5.366,5.366,218.716,209.357,206.374
0.151,12.835,5.351,5.351,218.696,209.347,206.395
0.153,12.868,5.354,5.354,218.672,209.351,206.417
0.154,12.907,5.373,5.373,218.643,209.362,206.441
0.156,12.950,5.407,5.407,218.611,209.375,206.468
0.157,12.997,5.450,5.450,218.577,209.383,206.498
0.159,13.049,5.501,5.501,218.540,209.381,206.534
0.160,13.108,5.555,5.555,218.502,209.364,206.576
0.162,13.178,5.610,5.610,218.462,209.332,206.624
0.163,13.258,5.662,5.662,218.422,209.287,206.678
0.165,13.348,5.712,5.712,218.381,209.232,206.735
0.166,13.447,5.759,5.759,218.338,209.168,206.797
0.168,13.552,5.803,5.803,218.295,209.096,206.861
0.169,13.663,5.844,5.844,218.252,209.020,206.928
0.171,13.777,5.881,5.881,218.208,208.940,206.997
0.172,13.893,5.916,5.916,218.164,208.858,207.067
0.174,14.010,5.948,5.948,218.120,208.777,207.138
0.175,14.124,5.977,5.977,218.076,208.698,207.208
0.177,14.236,6.007,6.007,218.032,208.622,207.277
0.178,14.344,6.036,6.036,217.988,208.548,207.344
0.180,14.450,6.067,6.067,217.945,208.476,207.408
0.181,14.552,6.100,6.100,217.902,208.406,207.468
0.182,14.651,6.137,6.137,217.860,208.335,207.523
0.184,14.747,6.178,6.178,217.818,208.264,207.572
0.185,14.840,6.220,6.220,217.776,208.193,207.614
0.187,14.931,6.263,6.263,217.736,208.119,207.649
0.188,15.021,6.304,6.304,217.696,208.043,207.674
0.190,15.110,6.341,6.341,217.657,207.963,207.690
0.191,15.202,6.374,6.374,217.619,207.880,207.695
0.193,15.298,6.401,6.401,217.581,207.792,207.689
0.194,15.400,6.421,6.421,217.545,207.698,207.675
0.196,15.510,6.438,6.438,217.509,207.596,207.652
0.197,15.628,6.453,6.453,217.475,207.487,207.624
0.199,15.757,6.467,6.467,217.440,207.368,207.590
0.200,15.896,6.484,6.484,217.407,207.238,207.552
0.202,16.047,6.505,6.505,217.374,207.097,207.511
0.203,16.210,6.532,6.532,217.341,206.943,207.469
0.205,16.386,6.565,6.565,217.309,206.774,207.428
0.206,16.576,6.604,6.604,217.277,206.591,207.387
0.208,16.781,6.650,6.650,217.246,206.393,207.349
0.209,16.996,6.703,6.703,217.215,206.182,207.314
0.211,17.218,6.763,6.763,217.185,205.965,207.283
0.212,17.440,6.830,6.830,217.156,205.746,207.257
0.214,17.659,6.903,6.903,217.128,205.530,207.235
0.215,17.870,6.979,6.979,217.101,205.321,207.219
0.217,18.068,7.052,7.052,217.075,205.126,207.209
0.218,18.247,7.119,7.119,217.051,204.948,207.205
0.220,18.404,7.174,7.174,217.028,204.793,207.208
0.221,18.534,7.214,7.214,217.007,204.665,207.219
0.223,18.633,7.233,7.233,216.989,204.570,207.238
0.224,18.702,7.231,7.231,216.972,204.508,207.265
0.226,18.748,7.212,7.212,216.959,204.476,207.296
0.227,18.783,7.183,7.183,216.948,204.467,207.327
0.228,18.812,7.148,7.148,216.940,204.474,207.355
0.230,18.840,7.114,7.114,216.936,204.492,207.376
0.231,18.865,7.087,7.087,216.936,204.515,207.385
0.233,18.888,7.073,7.073,216.941,204.537,207.381
0.234,18.916,7.073,7.073,216.950,204.551,207.358
0.236,18.963,7.084,7.084,216.963,204.552,207.313
0.237,19.038,7.103,7.103,216.983,204.533,207.243
0.239,19.150,7.126,7.126,217.007,204.490,207.143
0.240,19.298,7.150,7.150,217.037,204.420,207.016
0.242,19.476,7.171,7.171,217.072,204.329,206.867
0.243,19.677,7.186,7.186,217.109,204.221,206.702
0.245,19.893,7.194,7.194,217.149,204.100,206.528
0.246,20.116,7.198,7.198,217.191,203.970,206.351
0.248,20.340,7.198,7.198,217.233,203.836,206.177
0.249,20.556,7.197,7.197,217.274,203.702,206.012
0.251,20.758,7.196,7.195,217.314,203.573,205.862
0.252,20.937,7.196,7.196,217.352,203.452,205.735
0.254,21.087,7.199,7.199,217.386,203.345,205.635
0.255,21.203,7.205,7.205,217.415,203.256,205.568
0.257,21.289,7.212,7.213,217.441,203.183,205.532
0.258,21.351,7.220,7.222,217.462,203.125,205.521
0.260,21.399,7.228,7.230,217.481,203.081,205.531
0.261,21.443,7.235,7.236,217.496,203.050,205.557
0.263,21.486,7.239,7.239,217.509,203.028,205.592
0.264,21.530,7.240,7.239,217.519,203.015,205.633
0.266,21.572,7.238,7.235,217.528,203.010,205.673
0.267,21.608,7.233,7.229,217.536,203.009,205.709
0.269,21.634,7.225,7.220,217.543,203.012,205.733
0.270,21.646,7.214,7.210,217.549,203.018,205.742
0.272,21.659,7.201,7.198,217.556,203.023,205.733
0.273,21.686,7.186,7.186,217.563,203.028,205.707
0.274,21.725,7.169,7.175,217.570,203.032,205.669
0.276,21.773,7.152,7.164,217.579,203.034,205.622
0.277,21.825,7.139,7.155,217.590,203.032,205.571
0.279,21.880,7.130,7.148,217.602,203.026,205.518
0.280,21.933,7.128,7.144,217.617,203.015,205.468
0.282,21.984,7.136,7.144,217.635,202.998,205.424
0.283,22.030,7.155,7.148,217.656,202.974,205.390
0.285,22.075,7.184,7.157,217.681,202.943,205.369
0.286,22.125,7.219,7.167,217.710,202.902,205.366
0.288,22.187,7.255,7.177,217.742,202.851,205.380
0.289,22.266,7.286,7.185,217.777,202.785,205.407
0.291,22.364,7.308,7.187,217.811,202.701,205.443
0.292,22.483,7.315,7.181,217.844,202.594,205.484
0.294,22.625,7.302,7.166,217.873,202.462,205.525
0.295,22.794,7.266,7.139,217.898,202.299,205.563
0.297,22.993,7.207,7.096,217.915,202.102,205.592
0.298,23.228,7.123,7.035,217.924,201.868,205.608
0.300,23.503,7.015,6.952,217.923,201.593,205.608
0.301,23.825,6.880,6.845,217.910,201.272,205.586
0.303,24.198,6.718,6.711,217.884,200.904,205.540
0.304,24.616,6.529,6.548,217.845,200.493,205.470
0.306,25.070,6.322,6.362,217.796,200.050,205.381
0.307,25.549,6.111,6.166,217.740,199.586,205.277
0.309,26.041,5.910,5.971,217.678,199.112,205.162
0.310,26.535,5.733,5.788,217.614,198.638,205.040
0.312,27.018,5.592,5.629,217.549,198.175,204.916
0.313,27.481,5.502,5.504,217.486,197.733,204.794
0.315,27.911,5.473,5.424,217.428,197.323,204.677
0.316,28.297,5.495,5.383,217.377,196.956,204.571
0.318,28.626,5.555,5.371,217.334,196.643,204.478
0.319,28.892,5.640,5.381,217.303,196.390,204.403
0.320,29.097,5.733,5.403,217.282,196.194,204.345
0.322,29.250,5.823,5.429,217.270,196.048,204.301
0.323,29.356,5.894,5.449,217.265,195.947,204.270
0.325,29.424,5.938,5.458,217.267,195.882,204.250
0.326,29.460,5.959,5.457,217.273,195.849,204.239
0.328,29.473,5.964,5.448,217.282,195.839,204.235
0.329,29.488,5.959,5.435,217.293,195.848,204.237
0.331,29.511,5.951,5.419,217.305,195.867,204.242
0.332,29.539,5.946,5.404,217.316,195.892,204.248
0.334,29.564,5.951,5.392,217.326,195.914,204.254
0.335,29.582,5.966,5.384,217.332,195.931,204.259
0.337,29.594,5.987,5.380,217.336,195.942,204.262
0.338,29.600,6.004,5.378,217.337,195.946,204.265
0.340,29.601,6.011,5.379,217.337,195.945,204.265
0.341,29.608,6.000,5.382,217.335,195.939,204.265
0.343,29.621,5.965,5.385,217.332,195.926,204.263
0.344,29.639,5.897,5.388,217.328,195.908,204.261
0.346,29.663,5.802,5.391,217.324,195.885,204.257
0.347,29.693,5.693,5.393,217.320,195.856,204.252
0.349,29.727,5.584,5.396,217.315,195.823,204.247
0.350,29.767,5.489,5.398,217.312,195.784,204.240
0.352,29.810,5.422,5.399,217.309,195.741,204.233
0.353,29.856,5.398,5.401,217.307,195.695,204.226
0.355,29.903,5.429,5.402,217.305,195.649,204.219
0.356,29.949,5.508,5.404,217.303,195.604,204.213
0.358,29.992,5.616,5.405,217.301,195.561,204.208
0.359,30.031,5.736,5.406,217.300,195.522,204.204
0.361,30.065,5.850,5.407,217.298,195.489,204.202
0.362,30.091,5.939,5.407,217.296,195.463,204.202
0.364,30.108,5.986,5.408,217.293,195.446,204.205
0.365,30.118,5.977,5.408,217.290,195.439,204.211
0.366,30.129,5.918,5.409,217.286,195.444,204.220
0.368,30.147,5.826,5.409,217.281,195.458,204.231
0.369,30.169,5.713,5.409,217.277,195.476,204.243
0.371,30.193,5.596,5.409,217.274,195.497,204.254
0.372,30.213,5.487,5.409,217.272,195.515,204.263
0.374,30.226,5.402,5.410,217.271,195.527,204.268
0.375,30.229,5.351,5.410,217.273,195.529,204.268
0.377,30.242,5.329,5.409,217.278,195.518,204.261
0.378,30.275,5.327,5.408,217.285,195.491,204.247
0.380,30.330,5.340,5.406,217.296,195.442,204.223
0.381,30.412,5.360,5.401,217.312,195.370,204.188
0.383,30.521,5.379,5.395,217.331,195.272,204.142
0.384,30.654,5.391,5.386,217.355,195.154,204.087
0.386,30.803,5.390,5.374,217.381,195.020,204.026
0.387,30.964,5.380,5.359,217.410,194.876,203.961
0.389,31.129,5.362,5.342,217.440,194.728,203.894
0.390,31.294,5.338,5.323,217.471,194.580,203.829
0.392,31.452,5.311,5.302,217.502,194.437,203.768
0.393,31.598,5.283,5.280,217.533,194.306,203.712
0.395,31.726,5.255,5.257,217.562,194.190,203.666
0.396,31.830,5.231,5.234,217.590,194.096,203.631
0.398,31.905,5.209,5.212,217.614,194.029,203.609
0.399,31.953,5.191,5.192,217.636,193.987,203.600
0.401,31.980,5.178,5.178,217.654,193.967,203.602
0.402,31.997,5.170,5.169,217.668,193.963,203.610
0.404,32.014,5.168,5.167,217.678,193.969,203.623
0.405,32.033,5.172,5.174,217.683,193.982,203.636
0.407,32.051,5.182,5.189,217.683,193.995,203.647
0.408,32.062,5.196,5.208,217.678,194.004,203.653
0.409,32.073,5.214,5.229,217.667,194.003,203.651
0.411,32.100,5.234,5.250,217.650,193.987,203.636
0.412,32.152,5.255,5.267,217.627,193.952,203.608
0.414,32.233,5.276,5.278,217.597,193.892,203.561
0.415,32.345,5.296,5.280,217.560,193.808,203.497
0.417,32.487,5.312,5.274,217.513,193.703,203.414
0.418,32.657,5.324,5.261,217.457,193.579,203.312
0.420,32.854,5.328,5.243,217.391,193.437,203.191
0.421,33.078,5.323,5.219,217.312,193.282,203.052
0.423,33.326,5.307,5.192,217.221,193.114,202.893
0.424,33.599,5.278,5.163,217.115,192.936,202.716
0.426,33.895,5.236,5.133,216.995,192.750,202.519
0.427,34.214,5.188,5.106,216.859,192.559,202.302
0.429,34.555,5.143,5.083,216.706,192.365,202.066
0.430,34.918,5.108,5.069,216.537,192.171,201.812
0.432,35.295,5.093,5.066,216.354,191.977,201.544
0.433,35.680,5.105,5.078,216.163,191.787,201.269
0.435,36.067,5.153,5.107,215.968,191.602,200.992
0.436,36.447,5.238,5.153,215.773,191.424,200.718
0.438,36.815,5.347,5.211,215.582,191.254,200.453
0.439,37.162,5.467,5.276,215.401,191.096,200.203
0.441,37.482,5.583,5.340,215.232,190.950,199.973
0.442,37.768,5.680,5.398,215.082,190.818,199.769
0.444,38.012,5.744,5.444,214.953,190.703,199.597
0.445,38.207,5.763,5.471,214.850,190.606,199.462
0.447,38.353,5.733,5.479,214.775,190.528,199.365
0.448,38.455,5.671,5.473,214.723,190.467,199.301
0.450,38.520,5.592,5.456,214.693,190.422,199.266
0.451,38.554,5.510,5.435,214.680,190.393,199.255
0.453,38.573,5.440,5.413,214.681,190.376,199.263
0.454,38.599,5.398,5.397,214.693,190.372,199.286
0.455,38.638,5.399,5.390,214.713,190.378,199.318
0.457,38.685,5.439,5.392,214.738,190.394,199.356
0.458,38.737,5.505,5.402,214.764,190.417,199.394
0.460,38.789,5.586,5.416,214.788,190.448,199.428
0.461,38.836,5.667,5.432,214.808,190.483,199.453
0.463,38.879,5.734,5.447,214.821,190.520,199.469
0.464,38.916,5.775,5.458,214.829,190.555,199.476
0.466,38.944,5.779,5.463,214.832,190.584,199.475
0.467,38.964,5.748,5.462,214.829,190.602,199.468
0.469,38.978,5.693,5.457,214.822,190.605,199.455
0.470,39.005,5.623,5.448,214.810,190.588,199.438
0.472,39.053,5.546,5.437,214.793,190.549,199.417
0.473,39.127,5.473,5.425,214.772,190.482,199.394
0.475,39.232,5.413,5.414,214.747,190.383,199.369
0.476,39.372,5.373,5.404,214.718,190.248,199.343
0.478,39.549,5.353,5.398,214.686,190.076,199.318
0.479,39.758,5.350,5.395,214.651,189.871,199.294
0.481,39.990,5.361,5.398,214.614,189.644,199.270
0.482,40.237,5.384,5.408,214.577,189.400,199.248
0.484,40.493,5.416,5.426,214.540,189.148,199.227
0.485,40.747,5.455,5.453,214.504,188.897,199.208
0.487,40.994,5.498,5.489,214.471,188.653,199.192
0.488,41.224,5.543,5.531,214.441,188.425,199.179
0.490,41.430,5.588,5.576,214.416,188.221,199.168
0.491,41.604,5.629,5.620,214.396,188.048,199.161
0.493,41.738,5.665,5.660,214.382,187.915,199.157
0.494,41.829,5.694,5.692,214.375,187.824,199.157
0.496,41.885,5.712,5.713,214.373,187.769,199.159
0.497,41.910,5.720,5.723,214.376,187.744,199.163
0.499,41.917,5.719,5.723,214.381,187.742,199.167
0.500,41.935,5.712,5.715,214.388,187.757,199.171
0.501,41.962,5.701,5.704,214.395,187.784,199.173
0.503,41.994,5.688,5.690,214.402,187.815,199.173
0.504,42.024,5.676,5.676,214.406,187.845,199.170
0.506,42.047,5.666,5.666,214.408,187.866,199.161
0.507,42.063,5.660,5.659,214.404,187.874,199.148
0.509,42.089,5.657,5.656,214.396,187.861,199.127
0.510,42.134,5.658,5.657,214.382,187.827,199.101
0.512,42.197,5.662,5.661,214.363,187.776,199.069
0.513,42.276,5.669,5.669,214.340,187.710,199.032
0.515,42.368,5.679,5.679,214.315,187.632,198.991
0.516,42.469,5.693,5.693,214.287,187.545,198.947
0.518,42.577,5.709,5.709,214.259,187.452,198.901
0.519,42.688,5.726,5.727,214.230,187.355,198.854
0.521,42.799,5.745,5.745,214.201,187.259,198.806
0.522,42.908,5.763,5.763,214.174,187.166,198.759
0.524,43.010,5.780,5.780,214.149,187.078,198.712
0.525,43.103,5.796,5.796,214.128,186.998,198.668
0.527,43.188,5.808,5.808,214.109,186.927,198.625
0.528,43.265,5.819,5.819,214.094,186.864,198.585
0.530,43.334,5.827,5.827,214.081,186.807,198.548
0.531,43.395,5.833,5.833,214.071,186.758,198.513
0.533,43.450,5.838,5.838,214.064,186.714,198.481
0.534,43.499,5.841,5.841,214.059,186.675,198.453
0.536,43.541,5.844,5.844,214.056,186.641,198.427
0.537,43.578,5.845,5.845,214.056,186.611,198.405
0.539,43.611,5.846,5.846,214.058,186.584,198.387
0.540,43.639,5.846,5.846,214.062,186.560,198.373
0.542,43.663,5.846,5.846,214.068,186.539,198.362
0.543,43.685,5.845,5.845,214.075,186.519,198.355
0.545,43.705,5.845,5.845,214.083,186.502,198.351
0.546,43.723,5.845,5.845,214.092,186.486,198.349
0.547,43.740,5.845,5.845,214.100,186.472,198.349
0.549,43.755,5.845,5.845,214.108,186.458,198.350
0.550,43.769,5.844,5.844,214.114,186.446,198.351
0.552,43.782,5.843,5.843,214.120,186.435,198.353
0.553,43.793,5.840,5.840,214.123,186.425,198.355
0.555,43.803,5.836,5.836,214.124,186.414,198.356
0.556,43.813,5.830,5.830,214.122,186.404,198.355
0.558,43.825,5.823,5.823,214.117,186.394,198.353
0.559,43.838,5.814,5.814,214.112,186.383,198.348
0.561,43.855,5.804,5.804,214.107,186.370,198.339
0.562,43.875,5.792,5.792,214.103,186.354,198.326
0.564,43.901,5.780,5.779,214.102,186.336,198.309
0.565,43.933,5.766,5.766,214.106,186.314,198.285
0.567,43.974,5.752,5.752,214.115,186.288,198.256
0.568,44.024,5.738,5.738,214.132,186.256,198.219
0.570,44.087,5.723,5.723,214.156,186.219,198.175
0.571,44.164,5.709,5.709,214.190,186.175,198.122
0.573,44.256,5.695,5.695,214.235,186.125,198.060
0.574,44.364,5.682,5.682,214.290,186.064,197.989
0.576,44.489,5.669,5.669,214.353,185.992,197.909
0.577,44.630,5.658,5.658,214.423,185.906,197.821
0.579,44.790,5.645,5.644,214.498,185.802,197.726
0.580,44.969,5.629,5.628,214.578,185.679,197.624
0.582,45.168,5.606,5.605,214.660,185.534,197.514
0.583,45.389,5.574,5.573,214.743,185.364,197.399
0.585,45.635,5.530,5.530,214.825,185.167,197.277
0.586,45.907,5.473,5.473,214.906,184.941,197.151
0.588,46.207,5.401,5.402,214.983,184.682,197.019
0.589,46.536,5.319,5.322,215.056,184.391,196.883
0.591,46.889,5.235,5.238,215.124,184.074,196.745
0.592,47.258,5.154,5.158,215.189,183.737,196.608
0.593,47.638,5.084,5.087,215.252,183.388,196.474
0.595,48.020,5.029,5.031,215.312,183.033,196.345
0.596,48.399,4.997,4.996,215.370,182.678,196.223
0.598,48.768,4.990,4.984,215.427,182.332,196.112
0.599,49.118,5.003,4.993,215.484,182.000,196.014
0.601,49.444,5.033,5.019,215.541,181.690,195.930
0.602,49.740,5.073,5.058,215.598,181.408,195.864
0.604,49.997,5.119,5.106,215.656,181.162,195.818
