"T","Distance","Radius","FreeRadius","X","Y","Z"
0.000,0.000,2.851,2.851,223.339,204.466,228.934
0.001,0.329,2.876,2.876,223.203,204.727,229.081
0.003,0.655,2.904,2.904,223.068,204.986,229.226
0.004,0.977,2.937,2.938,222.934,205.242,229.366
0.006,1.290,2.979,2.979,222.802,205.493,229.500
0.007,1.593,3.031,3.031,222.674,205.737,229.625
0.008,1.882,3.096,3.096,222.549,205.973,229.739
0.010,2.157,3.177,3.177,222.430,206.198,229.839
0.011,2.414,3.276,3.276,222.316,206.412,229.924
0.013,2.651,3.391,3.390,222.208,206.613,229.992
0.014,2.867,3.517,3.516,222.108,206.798,230.040
0.015,3.061,3.650,3.649,222.016,206.967,230.066
0.017,3.233,3.785,3.784,221.932,207.117,230.067
0.018,3.385,3.918,3.917,221.858,207.247,230.043
0.020,3.523,4.045,4.045,221.793,207.358,229.994
0.021,3.652,4.162,4.162,221.735,207.452,229.925
0.023,3.779,4.267,4.269,221.684,207.529,229.839
0.024,3.906,4.363,4.365,221.638,207.593,229.739
0.025,4.035,4.450,4.453,221.596,207.645,229.630
0.027,4.164,4.530,4.533,221.557,207.686,229.514
0.028,4.292,4.605,4.608,221.519,207.719,229.396
0.030,4.418,4.676,4.677,221.481,207.745,229.279
0.031,4.538,4.744,4.743,221.442,207.766,229.166
0.032,4.652,4.810,4.806,221.402,207.784,229.062
0.034,4.755,4.874,4.866,221.357,207.800,228.970
0.035,4.847,4.935,4.924,221.308,207.817,228.894
0.037,4.930,4.992,4.980,221.254,207.834,228.834
0.038,5.007,5.045,5.034,221.195,207.853,228.788
0.039,5.081,5.093,5.088,221.132,207.874,228.755
0.041,5.155,5.137,5.140,221.064,207.896,228.733
0.042,5.232,5.175,5.191,220.993,207.919,228.720
0.044,5.310,5.209,5.242,220.919,207.945,228.713
0.045,5.393,5.241,5.292,220.841,207.971,228.712
0.046,5.478,5.270,5.342,220.761,208.000,228.713
0.048,5.566,5.300,5.393,220.679,208.030,228.716
0.049,5.656,5.330,5.443,220.594,208.062,228.717
0.051,5.748,5.361,5.494,220.508,208.096,228.716
0.052,5.843,5.395,5.545,220.421,208.132,228.709
0.053,5.939,5.432,5.596,220.333,208.170,228.697
0.055,6.037,5.470,5.646,220.246,208.210,228.680
0.056,6.133,5.510,5.695,220.160,208.250,228.660
0.058,6.228,5.550,5.742,220.078,208.291,228.638
0.059,6.318,5.590,5.787,220.000,208.331,228.615
0.060,6.404,5.630,5.828,219.928,208.372,228.592
0.062,6.483,5.669,5.866,219.863,208.411,228.571
0.063,6.554,5.705,5.899,219.806,208.449,228.553
0.065,6.615,5.738,5.927,219.758,208.485,228.539
0.066,6.666,5.767,5.947,219.722,208.518,228.531
0.068,6.705,5.789,5.959,219.697,208.549,228.529
0.069,6.735,5.805,5.962,219.685,208.576,228.536
0.070,6.763,5.812,5.955,219.687,208.599,228.552
0.072,6.796,5.810,5.936,219.701,208.619,228.575
0.073,6.833,5.800,5.908,219.721,208.635,228.601
0.075,6.872,5.786,5.876,219.745,208.648,228.629
0.076,6.908,5.770,5.844,219.768,208.659,228.654
0.077,6.938,5.755,5.815,219.788,208.666,228.675
0.079,6.956,5.745,5.794,219.799,208.672,228.688
0.080,6.960,5.743,5.785,219.799,208.675,228.691
0.082,6.979,5.752,5.792,219.784,208.676,228.680
0.083,7.022,5.773,5.817,219.750,208.676,228.653
0.084,7.096,5.807,5.859,219.693,208.675,228.607
0.086,7.204,5.856,5.918,219.610,208.672,228.539
0.087,7.350,5.921,5.992,219.496,208.669,228.446
0.089,7.532,6.002,6.081,219.355,208.665,228.331
0.090,7.744,6.101,6.184,219.191,208.659,228.198
0.091,7.978,6.219,6.301,219.009,208.651,228.051
0.093,8.228,6.352,6.429,218.813,208.641,227.896
0.094,8.487,6.494,6.563,218.609,208.627,227.737
0.096,8.750,6.638,6.700,218.401,208.609,227.578
0.097,9.008,6.777,6.833,218.194,208.588,227.424
0.098,9.257,6.902,6.958,217.994,208.561,227.279
0.100,9.489,7.008,7.071,217.804,208.530,227.149
0.101,9.698,7.085,7.167,217.630,208.493,227.038
0.103,9.880,7.132,7.243,217.477,208.449,226.950
0.104,10.030,7.154,7.301,217.349,208.399,226.890
0.105,10.150,7.159,7.346,217.248,208.342,226.857
0.107,10.249,7.154,7.380,217.171,208.282,226.845
0.108,10.333,7.148,7.408,217.115,208.220,226.846
0.110,10.406,7.148,7.432,217.076,208.158,226.856
0.111,10.470,7.162,7.456,217.053,208.099,226.865
0.113,10.526,7.195,7.482,217.041,208.045,226.869
0.114,10.574,7.244,7.511,217.038,207.998,226.860
0.115,10.621,7.303,7.539,217.040,207.960,226.832
0.117,10.682,7.368,7.566,217.045,207.934,226.777
0.118,10.771,7.434,7.590,217.050,207.921,226.689
0.120,10.898,7.494,7.610,217.052,207.924,226.562
0.121,11.073,7.543,7.624,217.047,207.945,226.389
0.122,11.299,7.578,7.630,217.034,207.985,226.167
0.124,11.570,7.597,7.628,217.014,208.043,225.903
0.125,11.877,7.603,7.620,216.990,208.118,225.606
0.127,12.213,7.598,7.605,216.962,208.207,225.284
0.128,12.568,7.582,7.585,216.932,208.310,224.945
0.129,12.934,7.558,7.559,216.902,208.425,224.599
0.131,13.303,7.528,7.528,216.874,208.551,224.253
0.132,13.666,7.493,7.493,216.849,208.685,223.916
0.134,14.016,7.456,7.455,216.829,208.827,223.597
0.135,14.345,7.416,7.416,216.816,208.975,223.304
0.136,14.646,7.376,7.375,216.812,209.128,223.044
0.138,14.913,7.337,7.336,216.817,209.284,222.828
0.139,15.143,7.299,7.299,216.834,209.441,222.661
0.141,15.343,7.265,7.265,216.862,209.598,222.540
0.142,15.522,7.236,7.236,216.900,209.754,222.459
0.143,15.688,7.211,7.212,216.946,209.906,222.413
0.145,15.846,7.190,7.192,216.999,210.053,222.395
0.146,15.998,7.172,7.174,217.059,210.194,222.399
0.148,16.147,7.154,7.156,217.123,210.326,222.420
0.149,16.291,7.136,7.138,217.191,210.448,222.452
0.150,16.427,7.117,7.118,217.262,210.559,222.488
0.152,16.553,7.096,7.095,217.334,210.657,222.522
0.153,16.666,7.071,7.068,217.406,210.740,222.550
0.155,16.765,7.044,7.038,217.477,210.807,222.564
0.156,16.849,7.015,7.006,217.546,210.855,222.559
0.158,16.926,6.984,6.975,217.612,210.887,222.535
0.159,17.001,6.954,6.945,217.674,210.903,222.495
0.160,17.079,6.923,6.918,217.732,210.906,222.443
0.162,17.160,6.894,6.894,217.784,210.898,222.381
0.163,17.245,6.866,6.876,217.831,210.881,222.314
0.165,17.329,6.841,6.863,217.871,210.856,222.243
0.166,17.413,6.820,6.855,217.905,210.826,222.173
0.167,17.491,6.805,6.850,217.930,210.793,222.107
0.169,17.562,6.795,6.850,217.948,210.759,222.047
0.170,17.622,6.794,6.853,217.956,210.726,221.997
0.172,17.670,6.802,6.859,217.955,210.696,221.961
0.173,17.704,6.818,6.868,217.943,210.670,221.941
0.174,17.733,6.840,6.877,217.923,210.650,221.937
0.176,17.762,6.862,6.883,217.898,210.636,221.942
0.177,17.788,6.877,6.884,217.875,210.627,221.949
0.179,17.807,6.880,6.877,217.856,210.623,221.953
0.180,17.818,6.865,6.859,217.848,210.623,221.947
0.181,17.842,6.827,6.827,217.855,210.629,221.924
0.183,17.896,6.761,6.779,217.881,210.638,221.878
0.184,17.988,6.669,6.714,217.931,210.651,221.802
0.186,18.126,6.558,6.635,218.010,210.668,221.690
0.187,18.319,6.433,6.541,218.123,210.687,221.535
0.188,18.574,6.301,6.433,218.274,210.710,221.331
0.190,18.899,6.168,6.314,218.469,210.736,221.071
0.191,19.297,6.041,6.185,218.708,210.764,220.754
0.193,19.759,5.925,6.046,218.985,210.795,220.386
0.194,20.271,5.823,5.902,219.293,210.830,219.978
0.195,20.823,5.732,5.763,219.625,210.869,219.540
0.197,21.400,5.648,5.635,219.972,210.913,219.081
0.198,21.992,5.571,5.528,220.328,210.963,218.610
0.200,22.586,5.496,5.450,220.684,211.018,218.138
0.201,23.170,5.422,5.408,221.034,211.080,217.675
0.203,23.732,5.346,5.411,221.370,211.149,217.229
0.204,24.260,5.268,5.460,221.684,211.227,216.812
0.205,24.743,5.191,5.540,221.969,211.312,216.431
0.207,25.169,5.120,5.640,222.216,211.407,216.098
0.208,25.530,5.057,5.745,222.422,211.510,215.820
0.210,25.830,5.007,5.843,222.585,211.623,215.594
0.211,26.079,4.974,5.919,222.712,211.741,215.416
0.212,26.286,4.960,5.962,222.807,211.865,215.281
0.214,26.460,4.968,5.963,222.872,211.993,215.181
0.215,26.612,4.993,5.928,222.914,212.122,215.113
0.217,26.751,5.029,5.866,222.936,212.252,215.071
0.218,26.882,5.069,5.786,222.942,212.381,215.049
0.219,27.008,5.109,5.695,222.938,212.508,215.042
0.221,27.131,5.143,5.602,222.926,212.630,215.044
0.222,27.249,5.165,5.516,222.911,212.746,215.050
0.224,27.359,5.172,5.442,222.898,212.855,215.055
0.225,27.459,5.165,5.381,222.890,212.956,215.053
0.226,27.551,5.149,5.333,222.889,213.047,215.043
0.228,27.633,5.128,5.297,222.894,213.128,215.026
0.229,27.708,5.107,5.271,222.903,213.198,215.004
0.231,27.774,5.090,5.255,222.917,213.258,214.979
0.232,27.832,5.081,5.247,222.933,213.306,214.951
0.233,27.883,5.084,5.247,222.952,213.343,214.922
0.235,27.925,5.098,5.253,222.971,213.369,214.894
0.236,27.960,5.119,5.266,222.990,213.381,214.868
0.238,27.989,5.145,5.284,223.009,213.382,214.845
0.239,28.017,5.171,5.307,223.025,213.369,214.828
0.241,28.048,5.194,5.333,223.038,213.343,214.816
0.242,28.089,5.212,5.363,223.048,213.303,214.812
0.243,28.141,5.222,5.395,223.054,213.252,214.816
0.245,28.201,5.222,5.428,223.056,213.193,214.825
0.246,28.262,5.214,5.458,223.056,213.133,214.838
0.248,28.321,5.201,5.484,223.053,213.076,214.854
0.249,28.372,5.183,5.502,223.049,213.028,214.869
0.250,28.409,5.162,5.509,223.045,212.994,214.881
0.252,28.427,5.140,5.503,223.041,212.978,214.890
0.253,28.436,5.118,5.482,223.038,212.987,214.893
0.255,28.475,5.097,5.445,223.036,213.024,214.887
0.256,28.548,5.076,5.396,223.037,213.096,214.871
0.257,28.663,5.054,5.339,223.041,213.207,214.843
0.259,28.825,5.030,5.276,223.048,213.364,214.801
0.260,29.036,5.004,5.212,223.060,213.566,214.744
0.262,29.290,4.975,5.150,223.076,213.810,214.674
0.263,29.579,4.941,5.093,223.094,214.086,214.592
0.264,29.894,4.904,5.044,223.115,214.388,214.502
0.266,30.229,4.865,5.002,223.137,214.707,214.406
0.267,30.574,4.826,4.966,223.161,215.037,214.305
0.269,30.922,4.789,4.936,223.184,215.368,214.202
0.270,31.265,4.757,4.909,223.207,215.695,214.100
0.271,31.595,4.731,4.886,223.230,216.009,214.001
0.273,31.903,4.714,4.865,223.250,216.302,213.907
0.274,32.183,4.707,4.846,223.268,216.567,213.820
0.276,32.425,4.708,4.829,223.283,216.796,213.743
0.277,32.624,4.717,4.815,223.295,216.983,213.677
0.278,32.780,4.731,4.804,223.303,217.129,213.623
0.280,32.898,4.750,4.797,223.307,217.239,213.578
0.281,32.984,4.771,4.793,223.309,217.317,213.543
0.283,33.041,4.793,4.794,223.308,217.367,213.515
0.284,33.074,4.814,4.800,223.305,217.393,213.494
0.286,33.092,4.834,4.810,223.300,217.400,213.479
0.287,33.108,4.852,4.823,223.293,217.392,213.468
0.288,33.129,4.868,4.839,223.285,217.374,213.459
0.290,33.156,4.882,4.857,223.276,217.349,213.453
0.291,33.185,4.892,4.876,223.266,217.323,213.447
0.293,33.212,4.899,4.895,223.256,217.298,213.442
0.294,33.234,4.901,4.913,223.246,217.281,213.434
0.295,33.251,4.901,4.930,223.237,217.271,213.424
0.297,33.267,4.898,4.948,223.227,217.269,213.412
0.298,33.286,4.896,4.965,223.218,217.275,213.396
0.300,33.311,4.894,4.982,223.208,217.287,213.376
0.301,33.343,4.895,5.000,223.199,217.306,213.352
0.302,33.382,4.900,5.018,223.190,217.331,213.324
0.304,33.428,4.909,5.037,223.182,217.362,213.290
0.305,33.482,4.925,5.058,223.173,217.399,213.251
0.307,33.544,4.945,5.079,223.165,217.441,213.206
0.308,33.614,4.969,5.100,223.157,217.487,213.154
0.309,33.692,4.997,5.121,223.149,217.538,213.096
0.311,33.778,5.027,5.142,223.141,217.592,213.030
0.312,33.872,5.059,5.162,223.134,217.650,212.957
0.314,33.972,5.092,5.181,223.127,217.711,212.877
0.315,34.078,5.125,5.199,223.121,217.775,212.793
0.316,34.187,5.156,5.216,223.116,217.841,212.706
0.318,34.300,5.185,5.233,223.112,217.908,212.616
0.319,34.414,5.209,5.251,223.109,217.977,212.525
0.321,34.528,5.227,5.268,223.108,218.046,212.435
0.322,34.641,5.238,5.287,223.108,218.116,212.346
0.323,34.751,5.239,5.308,223.111,218.186,212.260
0.325,34.859,5.232,5.329,223.115,218.255,212.178
0.326,34.961,5.218,5.351,223.122,218.323,212.101
0.328,35.058,5.199,5.373,223.132,218.389,212.031
0.329,35.149,5.179,5.392,223.144,218.453,211.968
0.331,35.234,5.161,5.407,223.160,218.515,211.912
0.332,35.316,5.147,5.419,223.179,218.576,211.860
0.333,35.395,5.141,5.424,223.202,218.634,211.812
0.335,35.472,5.143,5.423,223.230,218.690,211.766
0.336,35.550,5.152,5.417,223.263,218.743,211.721
0.338,35.628,5.165,5.407,223.302,218.794,211.676
0.339,35.710,5.179,5.397,223.347,218.843,211.629
0.340,35.795,5.191,5.388,223.398,218.889,211.579
0.342,35.886,5.197,5.382,223.457,218.933,211.524
0.343,35.985,5.196,5.381,223.523,218.974,211.463
0.345,36.093,5.183,5.386,223.597,219.013,211.395
0.346,36.210,5.163,5.398,223.679,219.049,211.319
0.347,36.337,5.138,5.413,223.768,219.084,211.235
0.349,36.473,5.112,5.430,223.862,219.122,211.146
0.350,36.615,5.091,5.447,223.959,219.166,211.052
0.352,36.763,5.078,5.463,224.058,219.218,210.954
0.353,36.915,5.077,5.475,224.156,219.280,210.856
0.354,37.073,5.092,5.482,224.251,219.357,210.757
0.356,37.235,5.123,5.485,224.342,219.450,210.660
0.357,37.405,5.166,5.485,224.427,219.563,210.566
0.359,37.584,5.219,5.486,224.504,219.698,210.477
0.360,37.777,5.279,5.490,224.571,219.859,210.393
0.361,37.987,5.342,5.499,224.626,220.047,210.318
0.363,38.220,5.405,5.516,224.667,220.267,210.251
0.364,38.476,5.465,5.543,224.694,220.515,210.194
0.366,38.752,5.521,5.580,224.710,220.786,210.144
0.367,39.043,5.572,5.624,224.715,221.073,210.102
0.368,39.344,5.618,5.672,224.712,221.372,210.066
0.370,39.648,5.659,5.720,224.702,221.675,210.035
0.371,39.952,5.694,5.764,224.687,221.977,210.008
0.373,40.248,5.724,5.803,224.669,222.271,209.984
0.374,40.531,5.748,5.831,224.649,222.553,209.961
0.376,40.795,5.767,5.849,224.630,222.815,209.940
0.377,41.033,5.783,5.858,224.612,223.052,209.918
0.378,41.241,5.796,5.861,224.598,223.258,209.895
0.380,41.411,5.809,5.860,224.590,223.426,209.870
0.381,41.543,5.824,5.858,224.587,223.554,209.843
0.383,41.639,5.842,5.858,224.589,223.647,209.813
0.384,41.706,5.864,5.863,224.595,223.706,209.784
0.385,41.749,5.892,5.874,224.604,223.736,209.755
0.387,41.778,5.923,5.890,224.614,223.741,209.728
0.388,41.809,5.954,5.911,224.624,223.725,209.704
0.390,41.850,5.981,5.936,224.633,223.691,209.683
0.391,41.901,6.001,5.963,224.640,223.642,209.668
0.392,41.960,6.011,5.992,224.644,223.584,209.659
0.394,42.025,6.008,6.021,224.642,223.519,209.658
0.395,42.094,5.989,6.051,224.635,223.451,209.665
0.397,42.164,5.959,6.079,224.621,223.385,209.681
0.398,42.235,5.922,6.105,224.599,223.322,209.708
0.399,42.305,5.883,6.130,224.571,223.266,209.740
0.401,42.372,5.848,6.153,224.541,223.218,209.775
0.402,42.431,5.822,6.172,224.511,223.179,209.808
0.404,42.479,5.809,6.188,224.484,223.151,209.836
0.405,42.511,5.815,6.200,224.462,223.135,209.853
0.406,42.526,5.836,6.207,224.448,223.133,209.857
0.408,42.546,5.865,6.206,224.445,223.147,209.843
0.409,42.595,5.894,6.195,224.455,223.178,209.807
0.411,42.679,5.916,6.172,224.481,223.228,209.745
0.412,42.803,5.924,6.134,224.526,223.298,209.652
0.414,42.973,5.910,6.081,224.593,223.390,209.526
0.415,43.192,5.867,6.009,224.683,223.505,209.363
0.416,43.456,5.796,5.920,224.795,223.640,209.165
0.418,43.757,5.704,5.818,224.925,223.792,208.941
0.419,44.086,5.597,5.709,225.069,223.958,208.695
0.421,44.435,5.483,5.595,225.224,224.132,208.435
0.422,44.796,5.368,5.482,225.385,224.311,208.167
0.423,45.160,5.261,5.374,225.550,224.492,207.897
0.425,45.519,5.167,5.276,225.714,224.670,207.633
0.426,45.864,5.091,5.190,225.873,224.842,207.379
0.428,46.188,5.031,5.116,226.024,225.004,207.143
0.429,46.481,4.986,5.053,226.163,225.152,206.932
0.430,46.735,4.954,5.003,226.286,225.282,206.751
0.432,46.943,4.933,4.963,226.390,225.391,206.607
0.433,47.104,4.922,4.935,226.474,225.477,206.501
0.435,47.222,4.920,4.917,226.540,225.543,206.428
0.436,47.303,4.923,4.910,226.589,225.591,206.386
0.437,47.353,4.933,4.912,226.624,225.623,206.369
0.439,47.383,4.946,4.922,226.647,225.642,206.373
0.440,47.409,4.963,4.939,226.659,225.649,206.395
0.442,47.445,4.982,4.962,226.663,225.647,206.430
0.443,47.490,5.001,4.989,226.661,225.638,206.475
0.444,47.542,5.020,5.020,226.654,225.624,206.524
0.446,47.596,5.037,5.053,226.645,225.607,206.575
0.447,47.647,5.053,5.087,226.635,225.590,206.622
0.449,47.691,5.068,5.120,226.627,225.574,206.662
0.450,47.725,5.081,5.151,226.622,225.561,206.693
0.451,47.748,5.093,5.178,226.619,225.552,206.715
0.453,47.763,5.104,5.199,226.620,225.546,206.728
0.454,47.770,5.115,5.214,226.623,225.544,206.734
0.456,47.776,5.124,5.220,226.629,225.545,206.733
0.457,47.788,5.132,5.219,226.637,225.550,206.727
0.459,47.806,5.138,5.212,226.649,225.558,206.716
0.460,47.829,5.142,5.200,226.663,225.570,206.701
0.461,47.858,5.142,5.184,226.679,225.585,206.683
0.463,47.893,5.139,5.167,226.698,225.605,206.663
0.464,47.931,5.131,5.149,226.720,225.628,206.641
0.466,47.974,5.118,5.131,226.744,225.656,206.619
0.467,48.020,5.100,5.115,226.770,225.687,206.597
0.468,48.072,5.078,5.099,226.799,225.723,206.574
0.470,48.128,5.053,5.082,226.831,225.764,206.550
0.471,48.191,5.026,5.063,226.864,225.810,206.525
0.473,48.260,4.997,5.042,226.900,225.862,206.496
0.474,48.336,4.967,5.019,226.939,225.919,206.464
0.475,48.420,4.936,4.991,226.979,225.983,206.428
0.477,48.512,4.906,4.959,227.022,226.054,206.387
0.478,48.614,4.876,4.923,227.068,226.131,206.340
0.480,48.725,4.844,4.884,227.115,226.217,206.286
0.481,48.847,4.810,4.840,227.165,226.310,206.226
0.482,48.981,4.774,4.793,227.217,226.411,206.157
0.484,49.126,4.735,4.743,227.272,226.521,206.079
0.485,49.281,4.692,4.689,227.328,226.639,205.995
0.487,49.443,4.646,4.633,227.385,226.761,205.905
0.488,49.609,4.597,4.577,227.443,226.887,205.813
0.489,49.776,4.548,4.524,227.500,227.014,205.721
0.491,49.941,4.501,4.475,227.556,227.140,205.630
0.492,50.101,4.457,4.435,227.611,227.263,205.544
0.494,50.253,4.417,4.404,227.663,227.381,205.465
0.495,50.394,4.385,4.386,227.712,227.493,205.394
0.496,50.520,4.359,4.382,227.758,227.595,205.335
0.498,50.630,4.341,4.390,227.799,227.687,205.290
0.499,50.722,4.327,4.406,227.835,227.765,205.260
0.501,50.793,4.316,4.427,227.865,227.829,205.249
0.502,50.849,4.307,4.450,227.889,227.878,205.255
0.504,50.896,4.298,4.471,227.909,227.916,205.276
0.505,50.942,4.287,4.488,227.924,227.946,205.308
0.506,50.990,4.274,4.498,227.935,227.971,205.347
0.508,51.041,4.258,4.500,227.942,227.994,205.392
0.509,51.093,4.240,4.494,227.948,228.019,205.437
0.511,51.145,4.220,4.480,227.951,228.047,205.481
0.512,51.198,4.199,4.459,227.953,228.084,205.520
0.513,51.254,4.177,4.429,227.954,228.131,205.549
0.515,51.318,4.155,4.392,227.955,228.192,205.567
0.516,51.395,4.134,4.348,227.956,228.270,205.570
0.518,51.495,4.113,4.297,227.959,228.368,205.554
0.519,51.619,4.093,4.243,227.963,228.487,205.519
0.520,51.766,4.073,4.189,227.969,228.623,205.467
0.522,51.930,4.054,4.136,227.977,228.774,205.400
0.523,52.107,4.034,4.087,227.986,228.934,205.324
0.525,52.293,4.015,4.045,227.997,229.099,205.240
0.526,52.483,3.995,4.012,228.009,229.266,205.152
0.527,52.670,3.975,3.988,228.024,229.431,205.063
0.529,52.852,3.955,3.972,228.040,229.589,204.976
0.530,53.021,3.935,3.962,228.057,229.737,204.895
0.532,53.175,3.914,3.956,228.077,229.871,204.823
0.533,53.306,3.893,3.953,228.098,229.986,204.762
0.534,53.412,3.872,3.950,228.120,230.079,204.717
0.536,53.490,3.851,3.947,228.145,230.147,204.689
0.537,53.542,3.830,3.941,228.169,230.192,204.677
0.539,53.577,3.809,3.934,228.193,230.218,204.676
0.540,53.602,3.790,3.926,228.214,230.227,204.683
0.541,53.623,3.774,3.916,228.232,230.225,204.695
0.543,53.645,3.761,3.905,228.244,230.213,204.709
0.544,53.667,3.753,3.893,228.250,230.196,204.721
0.546,53.687,3.749,3.881,228.249,230.177,204.728
0.547,53.707,3.751,3.868,228.238,230.160,204.726
0.549,53.736,3.758,3.855,228.217,230.148,204.712
0.550,53.780,3.768,3.845,228.184,230.145,204.683
0.551,53.847,3.782,3.837,228.137,230.153,204.634
0.553,53.943,3.799,3.832,228.077,230.178,204.564
0.554,54.066,3.817,3.832,228.005,230.219,204.474
0.556,54.211,3.837,3.837,227.926,230.279,204.367
0.557,54.376,3.856,3.848,227.846,230.358,204.247
0.558,54.556,3.873,3.860,227.768,230.456,204.118
0.560,54.749,3.885,3.871,227.698,230.576,203.984
0.561,54.953,3.887,3.876,227.640,230.717,203.848
0.563,55.169,3.879,3.871,227.600,230.881,203.714
0.564,55.396,3.856,3.852,227.581,231.068,203.586
0.565,55.638,3.815,3.815,227.589,231.279,203.468
0.567,55.900,3.755,3.756,227.629,231.516,203.364
0.568,56.187,3.681,3.682,227.705,231.779,203.277
0.570,56.506,3.602,3.600,227.821,232.068,203.210
0.571,56.860,3.525,3.522,227.978,232.383,203.166
0.572,57.245,3.458,3.454,228.169,232.716,203.141
