"T","Distance","Radius","FreeRadius","X","Y","Z"
0.000,0.000,2.425,2.425,238.792,209.297,198.531
0.001,0.054,2.402,2.402,238.778,209.332,198.492
0.002,0.106,2.380,2.380,238.763,209.365,198.455
0.004,0.154,2.360,2.360,238.750,209.395,198.420
0.005,0.194,2.343,2.343,238.737,209.419,198.390
0.006,0.226,2.330,2.330,238.726,209.436,198.366
0.007,0.247,2.321,2.321,238.717,209.444,198.349
0.008,0.257,2.317,2.317,238.711,209.441,198.341
0.009,0.273,2.320,2.320,238.707,209.426,198.343
0.011,0.306,2.331,2.331,238.706,209.396,198.357
0.012,0.359,2.349,2.349,238.709,209.350,198.384
0.013,0.436,2.375,2.375,238.716,209.286,198.426
0.014,0.538,2.409,2.409,238.726,209.203,198.483
0.015,0.668,2.452,2.452,238.742,209.098,198.559
0.017,0.823,2.503,2.503,238.762,208.974,198.650
0.018,0.999,2.562,2.562,238.786,208.835,198.755
0.019,1.192,2.629,2.629,238.814,208.683,198.871
0.020,1.398,2.706,2.706,238.845,208.523,198.997
0.021,1.613,2.790,2.790,238.878,208.358,199.129
0.023,1.832,2.881,2.881,238.915,208.191,199.266
0.024,2.051,2.976,2.976,238.953,208.026,199.405
0.025,2.266,3.072,3.072,238.993,207.866,199.543
0.026,2.473,3.167,3.167,239.035,207.716,199.679
0.027,2.667,3.259,3.259,239.077,207.578,199.810
0.028,2.846,3.344,3.344,239.120,207.456,199.934
0.030,3.005,3.422,3.422,239.163,207.354,200.048
0.031,3.145,3.488,3.488,239.207,207.271,200.152
0.032,3.267,3.543,3.543,239.250,207.208,200.247
0.033,3.376,3.589,3.589,239.294,207.160,200.335
0.034,3.475,3.629,3.629,239.339,207.128,200.416
0.036,3.567,3.664,3.664,239.385,207.107,200.493
0.037,3.655,3.698,3.698,239.433,207.098,200.567
0.038,3.741,3.733,3.733,239.482,207.098,200.638
0.039,3.828,3.771,3.771,239.532,207.104,200.708
0.040,3.917,3.815,3.815,239.585,207.116,200.779
0.041,4.009,3.866,3.866,239.640,207.130,200.851
0.043,4.106,3.923,3.923,239.698,207.146,200.927
0.044,4.207,3.985,3.985,239.758,207.162,201.006
0.045,4.313,4.050,4.050,239.821,207.175,201.091
0.046,4.423,4.115,4.115,239.886,207.188,201.179
0.047,4.535,4.178,4.178,239.952,207.198,201.269
0.049,4.648,4.238,4.238,240.018,207.208,201.359
0.050,4.759,4.291,4.291,240.084,207.217,201.449
0.051,4.869,4.337,4.337,240.148,207.226,201.538
0.052,4.974,4.375,4.375,240.209,207.235,201.623
0.053,5.073,4.405,4.405,240.267,207.243,201.703
0.055,5.166,4.428,4.428,240.322,207.253,201.777
0.056,5.250,4.445,4.445,240.371,207.263,201.844
0.057,5.323,4.457,4.457,240.415,207.274,201.902
0.058,5.385,4.465,4.465,240.453,207.286,201.950
0.059,5.435,4.470,4.470,240.483,207.300,201.987
0.060,5.474,4.473,4.473,240.507,207.315,202.014
0.062,5.505,4.475,4.475,240.525,207.331,202.032
0.063,5.529,4.476,4.476,240.538,207.349,202.043
0.064,5.550,4.476,4.476,240.547,207.367,202.047
0.065,5.569,4.475,4.475,240.553,207.385,202.046
0.066,5.589,4.474,4.474,240.556,207.404,202.041
0.068,5.609,4.472,4.472,240.557,207.423,202.034
0.069,5.630,4.470,4.470,240.557,207.442,202.024
0.070,5.651,4.468,4.468,240.557,207.460,202.015
0.071,5.671,4.466,4.466,240.557,207.478,202.006
0.072,5.690,4.464,4.464,240.559,207.495,201.999
0.073,5.706,4.462,4.462,240.563,207.511,201.996
0.075,5.722,4.460,4.460,240.568,207.526,201.995
0.076,5.737,4.459,4.459,240.576,207.539,201.997
0.077,5.752,4.458,4.458,240.585,207.550,202.001
0.078,5.766,4.458,4.458,240.595,207.559,202.006
0.079,5.780,4.459,4.459,240.606,207.565,202.012
0.081,5.794,4.461,4.461,240.617,207.568,202.019
0.082,5.808,4.463,4.463,240.629,207.567,202.026
0.083,5.822,4.467,4.467,240.641,207.563,202.032
0.084,5.837,4.472,4.472,240.653,207.555,202.036
0.085,5.855,4.477,4.477,240.665,207.542,202.040
0.086,5.875,4.484,4.484,240.676,207.525,202.041
0.088,5.900,4.492,4.492,240.687,207.502,202.039
0.089,5.929,4.500,4.500,240.697,207.476,202.035
0.090,5.961,4.510,4.510,240.708,207.446,202.030
0.091,5.996,4.520,4.520,240.722,207.415,202.026
0.092,6.032,4.531,4.531,240.739,207.383,202.023
0.094,6.069,4.543,4.543,240.762,207.354,202.023
0.095,6.109,4.554,4.554,240.791,207.327,202.026
0.096,6.153,4.564,4.564,240.828,207.304,202.035
0.097,6.204,4.572,4.572,240.873,207.287,202.050
0.098,6.266,4.578,4.578,240.930,207.277,202.073
0.100,6.340,4.582,4.582,240.998,207.276,202.105
0.101,6.432,4.582,4.582,241.079,207.285,202.146
0.102,6.543,4.578,4.578,241.174,207.305,202.199
0.103,6.673,4.571,4.571,241.283,207.337,202.263
0.104,6.820,4.562,4.562,241.404,207.379,202.336
0.105,6.980,4.551,4.551,241.533,207.429,202.415
0.107,7.148,4.540,4.540,241.667,207.484,202.499
0.108,7.320,4.530,4.530,241.804,207.544,202.586
0.109,7.494,4.521,4.521,241.941,207.606,202.672
0.110,7.664,4.516,4.516,242.075,207.669,202.757
0.111,7.827,4.514,4.514,242.202,207.730,202.837
0.113,7.978,4.516,4.516,242.321,207.788,202.910
0.114,8.114,4.522,4.522,242.429,207.841,202.975
0.115,8.231,4.530,4.530,242.521,207.887,203.029
0.116,8.324,4.541,4.541,242.597,207.924,203.070
0.117,8.392,4.552,4.552,242.653,207.950,203.097
0.118,8.437,4.564,4.564,242.692,207.968,203.111
0.120,8.464,4.575,4.575,242.717,207.978,203.115
0.121,8.477,4.585,4.585,242.729,207.982,203.112
0.122,8.487,4.593,4.593,242.731,207.980,203.103
0.123,8.501,4.598,4.598,242.725,207.975,203.091
0.124,8.519,4.602,4.602,242.714,207.967,203.078
0.126,8.539,4.603,4.603,242.701,207.958,203.067
0.127,8.557,4.602,4.602,242.686,207.949,203.060
0.128,8.572,4.600,4.600,242.674,207.941,203.059
0.129,8.585,4.597,4.597,242.665,207.937,203.067
0.130,8.603,4.592,4.592,242.664,207.936,203.085
0.132,8.635,4.586,4.586,242.671,207.940,203.116
0.133,8.681,4.579,4.579,242.687,207.948,203.159
0.134,8.740,4.571,4.571,242.712,207.958,203.210
0.135,8.808,4.561,4.561,242.747,207.970,203.268
0.136,8.886,4.549,4.549,242.792,207.981,203.330
0.137,8.970,4.536,4.536,242.846,207.991,203.395
0.139,9.061,4.521,4.521,242.910,207.997,203.458
0.140,9.157,4.503,4.503,242.984,207.999,203.519
0.141,9.257,4.483,4.483,243.068,207.994,203.575
0.142,9.364,4.461,4.461,243.162,207.981,203.623
0.143,9.477,4.435,4.435,243.267,207.959,203.661
0.145,9.600,4.408,4.408,243.382,207.927,203.687
0.146,9.733,4.379,4.379,243.507,207.882,203.699
0.147,9.880,4.348,4.348,243.643,207.826,203.696
0.148,10.040,4.317,4.317,243.788,207.760,203.680
0.149,10.213,4.286,4.286,243.942,207.686,203.654
0.150,10.399,4.255,4.255,244.105,207.605,203.617
0.152,10.595,4.224,4.224,244.275,207.518,203.572
0.153,10.801,4.195,4.195,244.453,207.429,203.521
0.154,11.015,4.167,4.167,244.638,207.337,203.463
0.155,11.236,4.144,4.144,244.829,207.245,203.403
0.156,11.462,4.124,4.124,245.026,207.154,203.339
0.158,11.691,4.110,4.110,245.228,207.066,203.275
0.159,11.923,4.103,4.103,245.434,206.982,203.212
0.160,12.155,4.104,4.104,245.645,206.905,203.150
0.161,12.387,4.114,4.114,245.858,206.834,203.092
0.162,12.617,4.134,4.134,246.072,206.770,203.036
0.164,12.844,4.162,4.162,246.285,206.712,202.984
0.165,13.066,4.197,4.197,246.494,206.659,202.934
0.166,13.282,4.235,4.235,246.699,206.612,202.887
0.167,13.488,4.272,4.272,246.897,206.570,202.843
0.168,13.685,4.307,4.307,247.086,206.532,202.803
0.169,13.870,4.335,4.335,247.263,206.499,202.765
0.171,14.041,4.355,4.355,247.428,206.469,202.730
0.172,14.196,4.364,4.364,247.578,206.444,202.697
0.173,14.334,4.358,4.358,247.711,206.421,202.668
0.174,14.453,4.342,4.342,247.825,206.401,202.642
0.175,14.552,4.319,4.319,247.920,206.384,202.619
0.177,14.634,4.291,4.291,247.998,206.368,202.602
0.178,14.702,4.262,4.262,248.064,206.352,202.591
0.179,14.760,4.237,4.237,248.119,206.336,202.590
0.180,14.814,4.217,4.217,248.169,206.319,202.600
0.181,14.870,4.207,4.207,248.216,206.298,202.623
0.182,14.935,4.209,4.209,248.263,206.275,202.662
0.184,15.015,4.226,4.226,248.314,206.247,202.717
0.185,15.115,4.256,4.256,248.373,206.213,202.791
0.186,15.239,4.299,4.299,248.442,206.173,202.885
0.187,15.390,4.354,4.354,248.524,206.125,203.003
0.188,15.573,4.421,4.421,248.625,206.069,203.145
0.190,15.789,4.499,4.499,248.744,206.004,203.313
0.191,16.035,4.588,4.588,248.882,205.931,203.504
0.192,16.306,4.687,4.687,249.033,205.851,203.712
0.193,16.595,4.795,4.795,249.196,205.765,203.935
0.194,16.898,4.910,4.910,249.368,205.674,204.168
0.195,17.209,5.029,5.029,249.544,205.580,204.406
0.197,17.523,5.150,5.150,249.722,205.483,204.646
0.198,17.834,5.271,5.271,249.899,205.385,204.883
0.199,18.138,5.388,5.388,250.071,205.287,205.113
0.200,18.428,5.499,5.499,250.236,205.190,205.331
0.201,18.700,5.602,5.602,250.391,205.096,205.534
0.203,18.948,5.695,5.695,250.531,205.005,205.717
0.204,19.168,5.776,5.776,250.655,204.918,205.877
0.205,19.359,5.846,5.846,250.762,204.837,206.013
0.206,19.525,5.907,5.907,250.854,204.760,206.128
0.207,19.667,5.960,5.960,250.932,204.689,206.223
0.209,19.788,6.005,6.005,250.997,204.622,206.300
0.210,19.891,6.045,6.045,251.051,204.561,206.362
0.211,19.977,6.079,6.079,251.094,204.505,206.411
0.212,20.049,6.110,6.110,251.129,204.453,206.448
0.213,20.110,6.138,6.138,251.157,204.407,206.475
0.214,20.161,6.163,6.163,251.179,204.366,206.495
0.216,20.203,6.185,6.185,251.196,204.330,206.510
0.217,20.239,6.205,6.205,251.210,204.298,206.520
0.218,20.269,6.223,6.223,251.222,204.273,206.530
0.219,20.294,6.238,6.239,251.232,204.251,206.538
0.220,20.314,6.252,6.252,251.241,204.235,206.546
0.222,20.331,6.263,6.263,251.249,204.222,206.554
0.223,20.344,6.272,6.272,251.256,204.213,206.560
0.224,20.355,6.279,6.279,251.261,204.207,206.566
0.225,20.362,6.285,6.284,251.266,204.203,206.571
0.226,20.368,6.289,6.288,251.269,204.201,206.576
0.227,20.372,6.292,6.291,251.271,204.201,206.579
0.229,20.375,6.293,6.292,251.272,204.202,206.581
0.230,20.377,6.293,6.292,251.273,204.203,206.583
0.231,20.379,6.292,6.291,251.272,204.205,206.583
0.232,20.381,6.290,6.290,251.270,204.207,206.582
0.233,20.385,6.287,6.288,251.267,204.207,206.580
0.235,20.389,6.283,6.285,251.264,204.208,206.578
0.236,20.393,6.280,6.282,251.260,204.207,206.575
0.237,20.398,6.277,6.280,251.257,204.207,206.572
0.238,20.402,6.274,6.278,251.254,204.206,206.570
0.239,20.405,6.273,6.276,251.252,204.205,206.568
0.241,20.407,6.273,6.275,251.251,204.203,206.567
0.242,20.408,6.275,6.276,251.251,204.202,206.568
0.243,20.412,6.279,6.278,251.253,204.200,206.571
0.244,20.418,6.285,6.281,251.257,204.199,206.575
0.245,20.428,6.293,6.286,251.263,204.197,206.583
0.246,20.441,6.302,6.292,251.272,204.196,206.593
0.248,20.459,6.312,6.300,251.284,204.195,206.606
0.249,20.481,6.322,6.309,251.298,204.193,206.622
0.250,20.507,6.331,6.320,251.316,204.191,206.642
0.251,20.538,6.340,6.333,251.336,204.188,206.664
0.252,20.572,6.348,6.346,251.359,204.183,206.690
0.254,20.611,6.353,6.362,251.384,204.177,206.718
0.255,20.654,6.357,6.378,251.412,204.167,206.750
0.256,20.701,6.359,6.395,251.442,204.155,206.784
0.257,20.753,6.361,6.410,251.474,204.139,206.821
0.258,20.809,6.361,6.425,251.508,204.120,206.861
0.259,20.870,6.360,6.437,251.545,204.096,206.904
0.261,20.937,6.359,6.446,251.583,204.067,206.950
0.262,21.008,6.358,6.451,251.624,204.033,206.998
0.263,21.084,6.356,6.452,251.666,203.995,207.049
0.264,21.165,6.355,6.448,251.712,203.953,207.101
0.265,21.250,6.352,6.439,251.762,203.908,207.153
0.267,21.339,6.348,6.427,251.815,203.861,207.206
0.268,21.431,6.341,6.411,251.874,203.813,207.258
0.269,21.525,6.331,6.392,251.937,203.765,207.309
0.270,21.623,6.316,6.370,252.007,203.718,207.357
0.271,21.723,6.296,6.346,252.084,203.672,207.403
0.273,21.826,6.270,6.321,252.167,203.628,207.446
0.274,21.934,6.237,6.295,252.259,203.588,207.484
0.275,22.045,6.198,6.266,252.359,203.552,207.518
0.276,22.162,6.151,6.235,252.467,203.521,207.546
0.277,22.285,6.098,6.199,252.586,203.494,207.569
0.278,22.418,6.038,6.159,252.715,203.470,207.587
0.280,22.560,5.972,6.113,252.855,203.447,207.600
0.281,22.714,5.899,6.059,253.007,203.424,207.609
0.282,22.881,5.819,5.998,253.171,203.398,207.615
0.283,23.061,5.733,5.927,253.349,203.367,207.618
0.284,23.255,5.642,5.848,253.540,203.332,207.618
0.286,23.466,5.548,5.763,253.746,203.288,207.617
0.287,23.693,5.454,5.675,253.967,203.236,207.614
0.288,23.939,5.361,5.586,254.204,203.173,207.610
0.289,24.204,5.274,5.501,254.458,203.097,207.606
0.290,24.489,5.193,5.421,254.729,203.007,207.601
0.291,24.794,5.123,5.350,255.016,202.903,207.597
0.293,25.114,5.065,5.291,255.314,202.788,207.593
0.294,25.442,5.021,5.246,255.618,202.664,207.588
0.295,25.774,4.991,5.214,255.924,202.536,207.583
0.296,26.103,4.973,5.193,256.226,202.405,207.576
0.297,26.424,4.964,5.181,256.520,202.276,207.568
0.299,26.732,4.963,5.176,256.800,202.150,207.558
0.300,27.020,4.968,5.175,257.062,202.031,207.545
0.301,27.283,4.975,5.176,257.301,201.922,207.530
0.302,27.516,4.984,5.176,257.513,201.826,207.512
0.303,27.712,4.992,5.173,257.691,201.746,207.491
0.305,27.868,4.998,5.167,257.832,201.685,207.466
0.306,27.980,5.001,5.156,257.933,201.644,207.437
0.307,28.056,5.002,5.143,257.998,201.621,207.407
0.308,28.104,5.001,5.129,258.034,201.611,207.377
0.309,28.135,4.999,5.114,258.047,201.611,207.348
0.310,28.161,4.994,5.098,258.041,201.618,207.324
0.312,28.187,4.988,5.084,258.024,201.626,207.305
0.313,28.214,4.981,5.072,258.002,201.634,207.294
0.314,28.237,4.972,5.062,257.979,201.636,207.292
0.315,28.257,4.962,5.055,257.962,201.629,207.302
0.316,28.288,4.951,5.049,257.957,201.610,207.325
0.318,28.341,4.937,5.043,257.970,201.575,207.363
0.319,28.428,4.921,5.036,258.006,201.519,207.418
0.320,28.553,4.903,5.027,258.071,201.440,207.492
0.321,28.715,4.883,5.016,258.162,201.341,207.582
0.322,28.908,4.859,5.000,258.275,201.224,207.686
0.323,29.125,4.832,4.978,258.405,201.094,207.800
0.325,29.360,4.801,4.952,258.549,200.953,207.922
0.326,29.607,4.769,4.921,258.703,200.807,208.048
0.327,29.860,4.735,4.887,258.861,200.657,208.177
0.328,30.112,4.701,4.853,259.020,200.509,208.303
0.329,30.356,4.667,4.819,259.176,200.365,208.426
0.331,30.588,4.635,4.787,259.323,200.229,208.541
0.332,30.799,4.606,4.760,259.459,200.106,208.646
0.333,30.985,4.580,4.738,259.579,199.997,208.738
0.334,31.139,4.559,4.723,259.678,199.908,208.814
0.335,31.260,4.542,4.715,259.757,199.837,208.874
0.336,31.354,4.529,4.713,259.817,199.784,208.921
0.338,31.424,4.520,4.714,259.862,199.744,208.957
0.339,31.473,4.514,4.719,259.893,199.717,208.985
0.340,31.506,4.511,4.726,259.912,199.700,209.006
0.341,31.528,4.510,4.733,259.921,199.691,209.023
0.342,31.544,4.511,4.740,259.924,199.687,209.038
0.344,31.560,4.513,4.744,259.921,199.687,209.054
0.345,31.579,4.516,4.746,259.916,199.687,209.073
0.346,31.604,4.520,4.745,259.910,199.687,209.097
0.347,31.637,4.524,4.742,259.905,199.683,209.129
0.348,31.679,4.529,4.738,259.904,199.674,209.170
0.350,31.733,4.535,4.732,259.909,199.659,209.222
0.351,31.798,4.540,4.726,259.917,199.638,209.283
0.352,31.871,4.545,4.720,259.931,199.613,209.350
0.353,31.951,4.551,4.714,259.948,199.585,209.423
0.354,32.036,4.556,4.708,259.969,199.555,209.500
0.355,32.123,4.560,4.703,259.993,199.525,209.578
0.357,32.212,4.565,4.699,260.020,199.494,209.656
0.358,32.299,4.569,4.696,260.051,199.464,209.732
0.359,32.384,4.574,4.692,260.084,199.436,209.806
0.360,32.464,4.579,4.688,260.119,199.412,209.874
0.361,32.539,4.584,4.685,260.156,199.392,209.935
0.363,32.605,4.589,4.680,260.194,199.378,209.987
0.364,32.665,4.595,4.675,260.235,199.369,210.031
0.365,32.722,4.602,4.669,260.278,199.363,210.068
0.366,32.780,4.609,4.662,260.324,199.357,210.102
0.367,32.841,4.617,4.656,260.374,199.350,210.136
0.368,32.908,4.625,4.652,260.428,199.338,210.172
0.370,32.984,4.633,4.649,260.489,199.319,210.215
0.371,33.073,4.641,4.648,260.556,199.291,210.266
0.372,33.179,4.650,4.651,260.630,199.250,210.330
0.373,33.306,4.658,4.658,260.713,199.194,210.408
0.374,33.458,4.666,4.669,260.804,199.121,210.505
0.376,33.639,4.675,4.685,260.905,199.027,210.623
0.377,33.854,4.686,4.707,261.016,198.911,210.765
0.378,34.104,4.700,4.734,261.139,198.771,210.933
0.379,34.387,4.718,4.769,261.271,198.610,211.124
0.380,34.694,4.742,4.810,261.411,198.431,211.331
0.382,35.020,4.773,4.858,261.557,198.240,211.550
0.383,35.357,4.812,4.914,261.708,198.038,211.775
0.384,35.699,4.860,4.978,261.862,197.832,212.000
0.385,36.040,4.918,5.050,262.016,197.624,212.222
0.386,36.372,4.985,5.127,262.170,197.419,212.433
0.387,36.690,5.056,5.209,262.322,197.221,212.629
0.389,36.986,5.130,5.291,262.469,197.034,212.805
0.390,37.254,5.204,5.372,262.610,196.862,212.955
0.391,37.490,5.276,5.449,262.744,196.708,213.074
0.392,37.688,5.342,5.519,262.868,196.577,213.157
0.393,37.853,5.401,5.581,262.982,196.469,213.206
0.395,37.991,5.449,5.631,263.087,196.381,213.223
0.396,38.109,5.486,5.669,263.181,196.311,213.215
0.397,38.213,5.514,5.697,263.266,196.258,213.185
0.398,38.310,5.533,5.716,263.341,196.220,213.138
0.399,38.403,5.546,5.727,263.407,196.195,213.078
0.400,38.493,5.552,5.733,263.463,196.180,213.008
0.402,38.580,5.555,5.734,263.509,196.173,212.934
0.403,38.663,5.555,5.733,263.545,196.174,212.860
0.404,38.738,5.553,5.730,263.572,196.179,212.790
0.405,38.802,5.551,5.727,263.589,196.188,212.729
0.406,38.853,5.549,5.724,263.597,196.197,212.680
0.408,38.889,5.547,5.721,263.597,196.205,212.645
0.409,38.914,5.545,5.718,263.590,196.213,212.622
0.410,38.930,5.544,5.716,263.580,196.220,212.611
0.411,38.943,5.544,5.714,263.568,196.225,212.609
0.412,38.956,5.545,5.713,263.557,196.227,212.615
0.414,38.971,5.547,5.712,263.550,196.227,212.628
0.415,38.989,5.549,5.711,263.547,196.224,212.646
0.416,39.012,5.553,5.711,263.553,196.216,212.667
0.417,39.042,5.559,5.712,263.568,196.205,212.691
0.418,39.082,5.566,5.715,263.596,196.189,212.714
0.419,39.135,5.575,5.719,263.639,196.168,212.737
0.421,39.203,5.586,5.726,263.698,196.142,212.757
0.422,39.288,5.598,5.736,263.775,196.109,212.774
0.423,39.389,5.612,5.750,263.868,196.072,212.788
0.424,39.504,5.629,5.767,263.975,196.031,212.799
0.425,39.631,5.648,5.788,264.093,195.987,212.809
0.427,39.767,5.669,5.813,264.221,195.940,212.818
0.428,39.911,5.692,5.842,264.356,195.892,212.826
0.429,40.059,5.717,5.872,264.496,195.844,212.835
0.430,40.210,5.745,5.904,264.639,195.796,212.844
0.431,40.362,5.775,5.937,264.782,195.749,212.854
0.432,40.511,5.806,5.971,264.925,195.704,212.866
0.434,40.657,5.840,6.004,265.063,195.661,212.880
0.435,40.796,5.876,6.036,265.196,195.623,212.898
0.436,40.928,5.914,6.067,265.322,195.589,212.918
0.437,41.053,5.953,6.098,265.440,195.558,212.943
0.438,41.172,5.993,6.128,265.553,195.531,212.970
0.440,41.287,6.032,6.158,265.661,195.505,213.000
0.441,41.398,6.071,6.189,265.765,195.481,213.033
0.442,41.508,6.109,6.221,265.865,195.457,213.068
0.443,41.616,6.144,6.255,265.964,195.432,213.105
0.444,41.723,6.177,6.290,266.061,195.407,213.145
0.445,41.832,6.207,6.328,266.157,195.379,213.186
0.447,41.943,6.234,6.368,266.254,195.348,213.229
0.448,42.056,6.260,6.409,266.353,195.314,213.273
0.449,42.173,6.285,6.451,266.454,195.274,213.318
0.450,42.296,6.310,6.493,266.558,195.230,213.364
0.451,42.422,6.336,6.536,266.665,195.181,213.410
0.453,42.552,6.364,6.578,266.773,195.127,213.456
0.454,42.683,6.395,6.619,266.882,195.070,213.503
0.455,42.814,6.429,6.659,266.990,195.011,213.549
0.456,42.944,6.466,6.696,267.096,194.950,213.593
0.457,43.072,6.506,6.731,267.198,194.887,213.637
0.459,43.196,6.547,6.764,267.297,194.825,213.679
0.460,43.315,6.587,6.794,267.390,194.763,213.718
0.461,43.427,6.626,6.821,267.477,194.703,213.756
0.462,43.531,6.661,6.844,267.557,194.644,213.790
0.463,43.627,6.691,6.863,267.627,194.589,213.822
0.464,43.711,6.716,6.878,267.689,194.537,213.850
0.466,43.786,6.733,6.889,267.740,194.489,213.875
0.467,43.851,6.744,6.895,267.783,194.445,213.896
0.468,43.909,6.749,6.899,267.818,194.404,213.916
0.469,43.960,6.749,6.900,267.847,194.366,213.933
0.470,44.006,6.746,6.898,267.871,194.330,213.949
0.472,44.047,6.741,6.896,267.891,194.296,213.963
0.473,44.086,6.734,6.892,267.907,194.264,213.977
0.474,44.122,6.727,6.889,267.921,194.233,213.991
0.475,44.158,6.720,6.886,267.934,194.204,214.005
0.476,44.193,6.715,6.883,267.947,194.175,214.020
0.477,44.229,6.712,6.882,267.962,194.146,214.036
0.479,44.266,6.710,6.882,267.978,194.117,214.054
0.480,44.306,6.709,6.882,267.998,194.088,214.073
0.481,44.348,6.710,6.883,268.019,194.060,214.094
0.482,44.390,6.712,6.884,268.042,194.032,214.116
0.483,44.433,6.716,6.885,268.066,194.005,214.138
