"T","Distance","Radius","FreeRadius","X","Y","Z"
0.000,0.000,1.994,1.994,299.662,283.035,275.239
0.001,0.501,2.083,2.083,299.643,282.965,275.735
0.003,0.997,2.175,2.175,299.624,282.897,276.226
0.004,1.484,2.270,2.270,299.605,282.830,276.708
0.006,1.957,2.371,2.371,299.584,282.765,277.176
0.007,2.413,2.479,2.479,299.561,282.703,277.627
0.009,2.846,2.597,2.597,299.537,282.645,278.055
0.010,3.252,2.726,2.726,299.511,282.592,278.457
0.011,3.626,2.866,2.866,299.481,282.543,278.827
0.013,3.965,3.014,3.014,299.449,282.501,279.162
0.014,4.264,3.161,3.161,299.413,282.466,279.456
0.016,4.518,3.302,3.302,299.373,282.438,279.705
0.017,4.724,3.429,3.429,299.329,282.418,279.905
0.019,4.880,3.535,3.535,299.281,282.407,280.054
0.020,4.992,3.614,3.614,299.231,282.403,280.154
0.021,5.070,3.661,3.661,299.181,282.404,280.213
0.023,5.124,3.678,3.678,299.134,282.407,280.239
0.024,5.165,3.673,3.673,299.092,282.412,280.237
0.026,5.206,3.654,3.654,299.059,282.414,280.215
0.027,5.248,3.626,3.626,299.036,282.414,280.179
0.029,5.293,3.598,3.598,299.027,282.407,280.136
0.030,5.339,3.575,3.575,299.034,282.393,280.092
0.031,5.390,3.565,3.565,299.059,282.368,280.056
0.033,5.453,3.569,3.569,299.105,282.331,280.033
0.034,5.540,3.584,3.584,299.176,282.280,280.030
0.036,5.659,3.608,3.608,299.271,282.213,280.053
0.037,5.810,3.640,3.640,299.390,282.132,280.100
0.039,5.989,3.679,3.679,299.528,282.041,280.168
0.040,6.189,3.722,3.722,299.680,281.942,280.253
0.041,6.404,3.767,3.767,299.842,281.839,280.350
0.043,6.628,3.813,3.813,300.011,281.736,280.455
0.044,6.855,3.860,3.860,300.181,281.635,280.565
0.046,7.077,3.905,3.905,300.348,281.540,280.676
0.047,7.288,3.949,3.949,300.509,281.454,280.783
0.049,7.483,3.990,3.990,300.658,281.381,280.883
0.050,7.653,4.027,4.027,300.793,281.323,280.972
0.051,7.795,4.059,4.059,300.907,281.285,281.045
0.053,7.902,4.086,4.086,300.999,281.268,281.099
0.054,7.980,4.109,4.109,301.068,281.270,281.136
0.056,8.038,4.128,4.128,301.118,281.286,281.157
0.057,8.081,4.145,4.145,301.153,281.311,281.167
0.059,8.117,4.159,4.159,301.175,281.339,281.168
0.060,8.147,4.172,4.172,301.188,281.366,281.163
0.061,8.170,4.185,4.185,301.195,281.386,281.155
0.063,8.183,4.198,4.198,301.199,281.394,281.146
0.064,8.194,4.212,4.212,301.204,281.386,281.141
0.066,8.226,4.228,4.228,301.213,281.355,281.141
0.067,8.287,4.247,4.247,301.229,281.297,281.151
0.069,8.384,4.272,4.272,301.256,281.206,281.172
0.070,8.522,4.301,4.301,301.295,281.079,281.207
0.071,8.699,4.337,4.337,301.348,280.917,281.257
0.073,8.909,4.381,4.381,301.411,280.726,281.317
0.074,9.146,4.431,4.431,301.484,280.512,281.387
0.076,9.401,4.488,4.488,301.564,280.282,281.464
0.077,9.670,4.553,4.553,301.649,280.040,281.546
0.079,9.945,4.624,4.624,301.736,279.794,281.629
0.080,10.219,4.703,4.703,301.825,279.548,281.713
0.081,10.486,4.788,4.788,301.913,279.310,281.793
0.083,10.739,4.879,4.879,301.997,279.084,281.869
0.084,10.971,4.972,4.972,302.077,278.876,281.938
0.086,11.176,5.063,5.063,302.149,278.693,281.997
0.087,11.348,5.149,5.149,302.213,278.541,282.045
0.089,11.487,5.226,5.226,302.267,278.419,282.080
0.090,11.594,5.290,5.290,302.312,278.324,282.106
0.091,11.675,5.338,5.338,302.348,278.254,282.123
0.093,11.732,5.370,5.370,302.375,278.205,282.133
0.094,11.768,5.385,5.385,302.394,278.175,282.137
0.096,11.786,5.388,5.388,302.406,278.161,282.138
0.097,11.791,5.379,5.379,302.410,278.158,282.136
0.099,11.800,5.362,5.362,302.407,278.166,282.133
0.100,11.817,5.338,5.338,302.397,278.179,282.130
0.101,11.840,5.309,5.309,302.381,278.196,282.130
0.103,11.868,5.278,5.278,302.359,278.213,282.134
0.104,11.901,5.246,5.246,302.331,278.228,282.143
0.106,11.937,5.217,5.217,302.300,278.239,282.157
0.107,11.975,5.192,5.192,302.267,278.245,282.177
0.109,12.015,5.174,5.174,302.237,278.247,282.202
0.110,12.053,5.164,5.164,302.212,278.245,282.231
0.111,12.092,5.166,5.166,302.194,278.238,282.265
0.113,12.132,5.179,5.179,302.187,278.226,282.302
0.114,12.176,5.201,5.201,302.194,278.209,282.343
0.116,12.231,5.228,5.228,302.217,278.187,282.386
0.117,12.300,5.257,5.257,302.260,278.160,282.433
0.119,12.387,5.284,5.284,302.325,278.127,282.482
0.120,12.498,5.305,5.305,302.416,278.089,282.533
0.121,12.635,5.318,5.318,302.534,278.045,282.585
0.123,12.797,5.320,5.320,302.680,277.996,282.639
0.124,12.982,5.313,5.313,302.848,277.942,282.694
0.126,13.184,5.300,5.300,303.033,277.884,282.750
0.127,13.400,5.283,5.283,303.231,277.822,282.807
0.129,13.623,5.264,5.264,303.438,277.759,282.865
0.130,13.850,5.248,5.248,303.647,277.693,282.923
0.131,14.076,5.235,5.235,303.855,277.627,282.983
0.133,14.297,5.228,5.228,304.056,277.560,283.042
0.134,14.507,5.226,5.226,304.247,277.494,283.102
0.136,14.703,5.229,5.229,304.421,277.429,283.163
0.137,14.879,5.236,5.236,304.575,277.366,283.223
0.139,15.034,5.247,5.247,304.704,277.306,283.283
0.140,15.165,5.261,5.261,304.806,277.249,283.344
0.141,15.278,5.277,5.277,304.884,277.195,283.404
0.143,15.376,5.294,5.294,304.942,277.144,283.464
0.144,15.464,5.311,5.311,304.983,277.095,283.525
0.146,15.545,5.329,5.329,305.010,277.048,283.585
0.147,15.622,5.346,5.346,305.026,277.004,283.646
0.149,15.697,5.362,5.362,305.034,276.961,283.707
0.150,15.770,5.376,5.376,305.037,276.920,283.768
0.151,15.843,5.388,5.388,305.038,276.881,283.830
0.153,15.916,5.396,5.396,305.041,276.843,283.892
0.154,15.989,5.401,5.401,305.049,276.807,283.954
0.156,16.062,5.405,5.405,305.065,276.771,284.016
0.157,16.139,5.407,5.407,305.090,276.737,284.080
0.159,16.219,5.409,5.409,305.124,276.703,284.144
0.160,16.303,5.411,5.411,305.166,276.670,284.209
0.161,16.392,5.414,5.414,305.215,276.638,284.276
0.163,16.487,5.419,5.419,305.271,276.606,284.345
0.164,16.586,5.426,5.426,305.334,276.576,284.416
0.166,16.690,5.434,5.434,305.402,276.545,284.490
0.167,16.800,5.443,5.443,305.474,276.516,284.566
0.169,16.914,5.453,5.453,305.550,276.487,284.646
0.170,17.033,5.464,5.464,305.630,276.458,284.729
0.171,17.156,5.476,5.476,305.713,276.430,284.816
0.173,17.284,5.489,5.489,305.797,276.402,284.908
0.174,17.415,5.502,5.502,305.883,276.374,285.003
0.176,17.549,5.517,5.517,305.970,276.348,285.101
0.177,17.684,5.533,5.533,306.058,276.322,285.201
0.179,17.820,5.550,5.550,306.146,276.297,285.301
0.180,17.955,5.570,5.570,306.235,276.274,285.401
0.181,18.089,5.593,5.593,306.324,276.253,285.498
0.183,18.221,5.618,5.618,306.413,276.234,285.593
0.184,18.348,5.645,5.645,306.501,276.217,285.684
0.186,18.471,5.673,5.673,306.589,276.203,285.769
0.187,18.589,5.700,5.700,306.675,276.192,285.848
0.189,18.700,5.726,5.726,306.761,276.184,285.919
0.190,18.804,5.748,5.748,306.845,276.180,285.981
0.191,18.902,5.766,5.766,306.926,276.179,286.034
0.193,18.993,5.779,5.779,307.005,276.180,286.079
0.194,19.078,5.786,5.786,307.081,276.181,286.118
0.196,19.157,5.790,5.790,307.152,276.182,286.153
0.197,19.230,5.792,5.792,307.218,276.181,286.185
0.199,19.298,5.794,5.794,307.278,276.176,286.215
0.200,19.360,5.797,5.797,307.331,276.166,286.246
0.201,19.419,5.803,5.803,307.377,276.150,286.280
0.203,19.477,5.813,5.813,307.414,276.126,286.317
0.204,19.537,5.828,5.828,307.441,276.093,286.360
0.206,19.606,5.846,5.846,307.459,276.049,286.409
0.207,19.686,5.868,5.868,307.465,275.994,286.468
0.209,19.782,5.892,5.892,307.461,275.926,286.536
0.210,19.893,5.918,5.918,307.447,275.848,286.613
0.211,20.016,5.944,5.944,307.427,275.762,286.698
0.213,20.150,5.972,5.972,307.402,275.669,286.791
0.214,20.291,5.999,5.999,307.374,275.571,286.890
0.216,20.438,6.028,6.028,307.345,275.472,286.994
0.217,20.588,6.057,6.057,307.319,275.373,287.103
0.219,20.738,6.089,6.089,307.296,275.275,287.215
0.220,20.887,6.123,6.123,307.279,275.182,287.330
0.221,21.033,6.160,6.160,307.270,275.095,287.447
0.223,21.175,6.200,6.200,307.272,275.017,287.565
0.224,21.312,6.244,6.244,307.286,274.949,287.683
0.226,21.444,6.288,6.288,307.314,274.893,287.800
0.227,21.574,6.332,6.332,307.353,274.848,287.915
0.229,21.701,6.374,6.374,307.402,274.812,288.027
0.230,21.827,6.411,6.411,307.459,274.785,288.136
0.231,21.949,6.442,6.442,307.520,274.766,288.240
0.233,22.068,6.465,6.465,307.584,274.752,288.338
0.234,22.181,6.480,6.480,307.649,274.743,288.431
0.236,22.287,6.487,6.487,307.712,274.737,288.516
0.237,22.384,6.490,6.490,307.771,274.734,288.593
0.239,22.469,6.490,6.490,307.823,274.732,288.661
0.240,22.542,6.488,6.488,307.866,274.729,288.719
0.241,22.599,6.486,6.486,307.899,274.725,288.766
0.243,22.641,6.486,6.486,307.919,274.719,288.802
0.244,22.670,6.488,6.488,307.929,274.710,288.828
0.246,22.692,6.493,6.493,307.932,274.700,288.847
0.247,22.709,6.499,6.499,307.930,274.688,288.860
0.249,22.725,6.505,6.505,307.927,274.677,288.869
0.250,22.739,6.510,6.510,307.924,274.665,288.877
0.251,22.753,6.514,6.514,307.926,274.654,288.885
0.253,22.770,6.515,6.515,307.934,274.644,288.896
0.254,22.795,6.514,6.514,307.953,274.636,288.912
0.256,22.833,6.510,6.511,307.984,274.631,288.933
0.257,22.889,6.505,6.506,308.030,274.628,288.964
0.259,22.965,6.499,6.500,308.095,274.629,289.005
0.260,23.065,6.494,6.495,308.180,274.634,289.058
0.261,23.187,6.489,6.490,308.283,274.642,289.121
0.263,23.325,6.486,6.486,308.400,274.653,289.193
0.264,23.478,6.485,6.484,308.530,274.667,289.272
0.266,23.640,6.486,6.483,308.668,274.681,289.356
0.267,23.807,6.487,6.483,308.811,274.697,289.441
0.269,23.977,6.487,6.483,308.956,274.713,289.528
0.270,24.144,6.486,6.482,309.100,274.728,289.612
0.271,24.306,6.483,6.481,309.239,274.742,289.694
0.273,24.458,6.477,6.477,309.370,274.754,289.769
0.274,24.596,6.467,6.472,309.490,274.764,289.837
0.276,24.717,6.454,6.465,309.596,274.771,289.895
0.277,24.817,6.440,6.459,309.685,274.774,289.941
0.279,24.898,6.425,6.453,309.758,274.773,289.977
0.280,24.961,6.412,6.449,309.815,274.770,290.003
0.281,25.009,6.401,6.448,309.859,274.764,290.020
0.283,25.043,6.393,6.451,309.892,274.757,290.029
0.284,25.068,6.390,6.458,309.914,274.748,290.032
0.286,25.084,6.391,6.469,309.928,274.739,290.029
0.287,25.098,6.395,6.481,309.935,274.729,290.022
0.289,25.112,6.401,6.494,309.936,274.719,290.012
0.290,25.128,6.408,6.506,309.933,274.711,289.999
0.291,25.144,6.415,6.516,309.928,274.703,289.986
0.293,25.159,6.422,6.522,309.923,274.697,289.973
0.294,25.173,6.428,6.523,309.918,274.694,289.961
0.296,25.184,6.432,6.521,309.914,274.693,289.950
0.297,25.193,6.435,6.515,309.912,274.693,289.942
0.299,25.200,6.436,6.508,309.911,274.694,289.935
0.300,25.205,6.436,6.500,309.912,274.695,289.930
0.301,25.209,6.434,6.493,309.916,274.696,289.928
0.303,25.214,6.431,6.487,309.921,274.697,289.928
0.304,25.222,6.426,6.484,309.929,274.697,289.931
0.306,25.234,6.420,6.483,309.939,274.695,289.936
0.307,25.250,6.412,6.483,309.952,274.690,289.945
0.309,25.271,6.404,6.483,309.968,274.683,289.956
0.310,25.297,6.396,6.482,309.986,274.673,289.971
0.311,25.329,6.387,6.479,310.008,274.659,289.990
0.313,25.367,6.378,6.473,310.034,274.642,290.011
0.314,25.411,6.370,6.463,310.064,274.621,290.036
0.316,25.461,6.362,6.449,310.099,274.598,290.062
0.317,25.517,6.351,6.432,310.139,274.571,290.091
0.319,25.579,6.337,6.412,310.186,274.543,290.121
0.320,25.648,6.319,6.389,310.239,274.513,290.152
0.321,25.723,6.296,6.364,310.300,274.481,290.183
0.323,25.806,6.265,6.336,310.369,274.448,290.215
0.324,25.896,6.226,6.308,310.446,274.414,290.246
0.326,25.994,6.180,6.277,310.533,274.379,290.276
0.327,26.100,6.129,6.245,310.629,274.344,290.305
0.329,26.215,6.075,6.212,310.735,274.310,290.332
0.330,26.339,6.019,6.176,310.852,274.275,290.358
0.331,26.470,5.964,6.139,310.976,274.241,290.381
0.333,26.609,5.912,6.100,311.108,274.206,290.403
0.334,26.752,5.864,6.058,311.246,274.170,290.423
0.336,26.901,5.821,6.015,311.388,274.134,290.442
0.337,27.052,5.781,5.971,311.534,274.096,290.460
0.339,27.206,5.743,5.926,311.682,274.057,290.476
0.340,27.361,5.706,5.881,311.831,274.017,290.491
0.341,27.515,5.668,5.837,311.979,273.975,290.505
0.343,27.669,5.629,5.793,312.125,273.931,290.517
0.344,27.820,5.586,5.752,312.269,273.884,290.529
0.346,27.968,5.541,5.712,312.408,273.835,290.541
0.347,28.113,5.495,5.675,312.543,273.784,290.551
0.349,28.253,5.448,5.639,312.672,273.731,290.560
0.350,28.390,5.404,5.605,312.797,273.676,290.569
0.351,28.522,5.363,5.573,312.917,273.621,290.577
0.353,28.650,5.327,5.543,313.032,273.565,290.585
0.354,28.773,5.297,5.514,313.142,273.510,290.592
0.356,28.892,5.273,5.488,313.247,273.455,290.598
0.357,29.006,5.255,5.462,313.347,273.401,290.603
0.359,29.114,5.241,5.439,313.442,273.348,290.608
0.360,29.217,5.231,5.417,313.531,273.298,290.613
0.361,29.314,5.223,5.396,313.616,273.250,290.617
0.363,29.405,5.216,5.376,313.695,273.205,290.620
0.364,29.490,5.209,5.357,313.768,273.164,290.623
0.366,29.568,5.202,5.340,313.837,273.126,290.626
0.367,29.640,5.195,5.324,313.900,273.091,290.629
0.369,29.705,5.187,5.311,313.957,273.060,290.632
0.370,29.763,5.179,5.301,314.009,273.033,290.636
0.371,29.815,5.171,5.294,314.055,273.011,290.642
0.373,29.860,5.163,5.290,314.095,272.992,290.648
0.374,29.898,5.154,5.291,314.130,272.978,290.656
0.376,29.930,5.146,5.297,314.159,272.968,290.666
0.377,29.957,5.138,5.307,314.181,272.963,290.678
0.379,29.979,5.130,5.320,314.198,272.963,290.693
0.380,30.000,5.124,5.336,314.209,272.968,290.710
0.381,30.022,5.120,5.355,314.215,272.977,290.730
0.383,30.045,5.117,5.375,314.216,272.989,290.750
0.384,30.069,5.117,5.398,314.216,273.002,290.769
0.386,30.090,5.119,5.420,314.214,273.015,290.786
0.387,30.108,5.121,5.439,314.212,273.025,290.800
0.389,30.119,5.123,5.451,314.212,273.033,290.808
0.390,30.123,5.122,5.454,314.215,273.035,290.810
0.391,30.134,5.118,5.444,314.222,273.031,290.805
0.393,30.158,5.107,5.417,314.236,273.019,290.789
0.394,30.198,5.090,5.371,314.257,272.997,290.763
0.396,30.256,5.065,5.305,314.286,272.963,290.725
0.397,30.336,5.033,5.224,314.326,272.917,290.673
0.399,30.438,4.995,5.133,314.378,272.858,290.608
0.400,30.560,4.951,5.040,314.442,272.784,290.534
0.401,30.701,4.904,4.949,314.520,272.698,290.455
0.403,30.860,4.853,4.866,314.613,272.598,290.374
0.404,31.036,4.799,4.798,314.723,272.486,290.295
0.406,31.228,4.745,4.747,314.850,272.361,290.222
0.407,31.439,4.688,4.709,314.995,272.223,290.159
0.409,31.668,4.631,4.679,315.161,272.072,290.109
0.410,31.918,4.572,4.652,315.348,271.909,290.076
0.411,32.191,4.513,4.623,315.557,271.734,290.064
0.413,32.490,4.452,4.587,315.790,271.548,290.077
0.414,32.818,4.391,4.539,316.048,271.349,290.118
0.416,33.176,4.330,4.476,316.329,271.140,290.188
0.417,33.558,4.272,4.406,316.629,270.922,290.282
0.419,33.959,4.220,4.336,316.944,270.700,290.396
0.420,34.373,4.179,4.275,317.267,270.476,290.523
0.421,34.793,4.151,4.231,317.595,270.253,290.660
0.423,35.211,4.140,4.212,317.923,270.034,290.801
0.424,35.622,4.149,4.226,318.245,269.821,290.942
0.426,36.018,4.181,4.278,318.557,269.617,291.076
0.427,36.392,4.232,4.362,318.853,269.427,291.200
0.429,36.737,4.296,4.468,319.130,269.251,291.308
0.430,37.047,4.370,4.586,319.382,269.094,291.396
0.431,37.314,4.447,4.708,319.604,268.957,291.457
0.433,37.538,4.524,4.823,319.794,268.843,291.491
0.434,37.724,4.596,4.923,319.954,268.750,291.501
0.436,37.878,4.658,4.999,320.088,268.674,291.489
0.437,38.006,4.711,5.054,320.197,268.615,291.460
0.439,38.114,4.756,5.089,320.286,268.570,291.418
0.440,38.208,4.793,5.109,320.357,268.537,291.366
0.441,38.291,4.824,5.116,320.412,268.513,291.309
0.443,38.366,4.850,5.115,320.454,268.497,291.249
0.444,38.434,4.873,5.108,320.488,268.487,291.190
0.446,38.494,4.892,5.099,320.514,268.480,291.137
0.447,38.544,4.909,5.088,320.537,268.474,291.092
0.449,38.584,4.924,5.078,320.558,268.466,291.061
0.450,38.613,4.937,5.069,320.581,268.457,291.044
0.451,38.641,4.950,5.063,320.606,268.446,291.042
0.453,38.672,4.963,5.059,320.633,268.434,291.053
0.454,38.712,4.975,5.061,320.662,268.421,291.077
0.456,38.762,4.988,5.067,320.695,268.410,291.113
0.457,38.822,5.001,5.079,320.731,268.399,291.159
0.459,38.891,5.013,5.095,320.771,268.391,291.216
0.460,38.970,5.024,5.115,320.815,268.386,291.281
0.461,39.058,5.032,5.138,320.864,268.384,291.354
0.463,39.155,5.037,5.164,320.917,268.387,291.435
0.464,39.261,5.039,5.191,320.977,268.395,291.522
0.466,39.374,5.036,5.221,321.042,268.409,291.613
0.467,39.496,5.030,5.251,321.113,268.429,291.710
0.469,39.624,5.024,5.281,321.191,268.454,291.809
0.470,39.757,5.021,5.310,321.273,268.480,291.910
0.471,39.894,5.023,5.338,321.361,268.505,292.013
0.473,40.033,5.034,5.364,321.453,268.528,292.114
0.474,40.174,5.055,5.388,321.549,268.546,292.215
0.476,40.314,5.090,5.409,321.650,268.556,292.312
0.477,40.454,5.136,5.426,321.753,268.556,292.406
0.479,40.593,5.191,5.443,321.860,268.544,292.495
0.480,40.732,5.250,5.459,321.969,268.518,292.577
0.481,40.874,5.310,5.476,322.080,268.474,292.653
0.483,41.019,5.367,5.494,322.194,268.412,292.720
0.484,41.172,5.418,5.516,322.309,268.329,292.777
0.486,41.333,5.458,5.542,322.424,268.229,292.826
0.487,41.502,5.488,5.572,322.541,268.113,292.866
0.489,41.678,5.511,5.604,322.659,267.986,292.899
0.490,41.861,5.530,5.638,322.776,267.849,292.925
0.491,42.046,5.547,5.672,322.894,267.707,292.945
0.493,42.234,5.565,5.706,323.012,267.562,292.959
0.494,42.420,5.588,5.737,323.129,267.417,292.968
0.496,42.604,5.618,5.765,323.246,267.275,292.973
0.497,42.782,5.655,5.789,323.361,267.140,292.975
0.499,42.952,5.697,5.811,323.475,267.014,292.973
0.500,43.112,5.743,5.831,323.588,266.900,292.969
0.501,43.261,5.790,5.850,323.699,266.801,292.964
0.503,43.398,5.835,5.869,323.807,266.716,292.957
0.504,43.525,5.878,5.888,323.911,266.644,292.950
0.506,43.642,5.915,5.909,324.012,266.584,292.942
0.507,43.750,5.947,5.930,324.107,266.535,292.935
0.509,43.847,5.972,5.953,324.196,266.495,292.928
0.510,43.935,5.993,5.974,324.278,266.464,292.923
0.511,44.014,6.009,5.994,324.352,266.440,292.919
0.513,44.082,6.020,6.011,324.418,266.422,292.917
0.514,44.140,6.027,6.024,324.474,266.409,292.918
0.516,44.187,6.031,6.033,324.520,266.399,292.922
0.517,44.224,6.033,6.037,324.555,266.392,292.929
0.519,44.250,6.031,6.036,324.579,266.387,292.941
0.520,44.272,6.027,6.032,324.593,266.383,292.957
0.521,44.295,6.021,6.025,324.599,266.380,292.979
0.523,44.323,6.014,6.016,324.601,266.378,293.007
0.524,44.358,6.005,6.006,324.600,266.377,293.042
0.526,44.400,5.995,5.995,324.599,266.376,293.084
0.527,44.452,5.984,5.983,324.600,266.377,293.135
0.529,44.512,5.972,5.971,324.606,266.378,293.196
0.530,44.584,5.958,5.957,324.620,266.380,293.266
0.531,44.668,5.941,5.940,324.643,266.382,293.347
0.533,44.766,5.922,5.921,324.678,266.384,293.439
0.534,44.882,5.899,5.899,324.728,266.387,293.543
0.536,45.016,5.872,5.872,324.794,266.389,293.660
0.537,45.167,5.842,5.842,324.874,266.392,293.788
0.539,45.331,5.808,5.809,324.967,266.395,293.923
0.540,45.504,5.774,5.774,325.068,266.398,294.063
0.541,45.682,5.739,5.740,325.175,266.401,294.205
0.543,45.861,5.707,5.707,325.284,266.404,294.347
0.544,46.037,5.677,5.677,325.394,266.406,294.485
0.546,46.207,5.651,5.651,325.500,266.408,294.617
0.547,46.365,5.630,5.630,325.599,266.410,294.740
0.549,46.508,5.614,5.613,325.690,266.412,294.852
0.550,46.633,5.602,5.601,325.769,266.413,294.948
0.551,46.734,5.594,5.593,325.832,266.414,295.027
0.553,46.809,5.590,5.589,325.878,266.414,295.086
0.554,46.858,5.588,5.588,325.907,266.413,295.127
0.556,46.887,5.589,5.589,325.921,266.413,295.151
0.557,46.898,5.592,5.592,325.925,266.412,295.162
0.559,46.904,5.596,5.597,325.919,266.412,295.161
0.560,46.918,5.601,5.603,325.908,266.411,295.153
0.561,46.939,5.607,5.608,325.893,266.411,295.139
0.563,46.962,5.612,5.613,325.876,266.411,295.122
0.564,46.985,5.616,5.617,325.862,266.412,295.105
0.566,47.003,5.619,5.619,325.851,266.414,295.089
0.567,47.015,5.619,5.618,325.848,266.416,295.079
0.569,47.022,5.618,5.614,325.854,266.420,295.076
0.570,47.042,5.614,5.609,325.872,266.425,295.084
0.571,47.076,5.608,5.601,325.901,266.431,295.101
0.573,47.125,5.599,5.593,325.940,266.438,295.128
0.574,47.184,5.588,5.583,325.988,266.447,295.163
0.576,47.254,5.573,5.573,326.042,266.458,295.205
0.577,47.332,5.556,5.563,326.101,266.470,295.254
0.579,47.416,5.536,5.552,326.163,266.484,295.309
0.580,47.505,5.514,5.541,326.227,266.500,295.369
0.581,47.596,5.489,5.529,326.291,266.518,295.432
