"T","Distance","Radius","FreeRadius","X","Y","Z"
0.000,0.000,1.959,1.959,-24.465,116.107,163.382
0.001,0.532,2.266,2.266,-24.121,116.509,163.440
0.003,1.059,2.569,2.569,-23.780,116.907,163.498
0.004,1.577,2.864,2.864,-23.445,117.297,163.555
0.005,2.080,3.148,3.148,-23.118,117.676,163.610
0.006,2.565,3.417,3.417,-22.802,118.039,163.663
0.008,3.025,3.667,3.667,-22.500,118.384,163.713
0.009,3.458,3.895,3.895,-22.216,118.706,163.758
0.010,3.857,4.096,4.096,-21.951,119.002,163.800
0.012,4.218,4.268,4.268,-21.709,119.267,163.836
0.013,4.536,4.415,4.415,-21.492,119.498,163.867
0.014,4.807,4.539,4.539,-21.303,119.691,163.892
0.015,5.027,4.642,4.642,-21.146,119.843,163.910
0.017,5.194,4.729,4.729,-21.020,119.953,163.922
0.018,5.316,4.802,4.802,-20.922,120.026,163.927
0.019,5.399,4.864,4.864,-20.850,120.067,163.926
0.021,5.452,4.919,4.919,-20.800,120.080,163.920
0.022,5.485,4.967,4.967,-20.769,120.070,163.909
0.023,5.520,5.010,5.010,-20.754,120.043,163.894
0.024,5.564,5.046,5.046,-20.753,120.003,163.876
0.026,5.618,5.076,5.076,-20.762,119.954,163.854
0.027,5.677,5.099,5.099,-20.777,119.903,163.831
0.028,5.736,5.113,5.113,-20.797,119.852,163.805
0.030,5.791,5.120,5.120,-20.817,119.809,163.779
0.031,5.838,5.119,5.119,-20.835,119.775,163.751
0.032,5.876,5.110,5.110,-20.851,119.753,163.725
0.033,5.907,5.096,5.096,-20.863,119.740,163.700
0.035,5.931,5.079,5.079,-20.872,119.735,163.678
0.036,5.949,5.060,5.060,-20.878,119.737,163.661
0.037,5.962,5.042,5.042,-20.880,119.743,163.651
0.039,5.972,5.027,5.027,-20.879,119.753,163.647
0.040,5.986,5.018,5.018,-20.874,119.765,163.652
0.041,6.007,5.015,5.015,-20.865,119.777,163.667
0.042,6.039,5.019,5.019,-20.853,119.788,163.694
0.044,6.083,5.028,5.028,-20.836,119.797,163.733
0.045,6.140,5.040,5.040,-20.814,119.802,163.786
0.046,6.212,5.053,5.053,-20.789,119.802,163.854
0.048,6.296,5.065,5.065,-20.760,119.797,163.933
0.049,6.389,5.074,5.074,-20.730,119.790,164.020
0.050,6.487,5.077,5.077,-20.698,119.779,164.112
0.051,6.588,5.074,5.074,-20.667,119.767,164.207
0.053,6.687,5.065,5.065,-20.637,119.753,164.300
0.054,6.782,5.051,5.051,-20.608,119.739,164.390
0.055,6.869,5.034,5.034,-20.583,119.725,164.472
0.057,6.944,5.017,5.017,-20.563,119.713,164.543
0.058,7.005,5.000,5.000,-20.547,119.702,164.602
0.059,7.049,4.986,4.986,-20.538,119.694,164.643
0.060,7.072,4.976,4.976,-20.537,119.689,164.666
0.062,7.078,4.971,4.971,-20.541,119.687,164.670
0.063,7.090,4.971,4.971,-20.550,119.689,164.663
0.064,7.107,4.973,4.973,-20.559,119.693,164.648
0.066,7.126,4.975,4.975,-20.567,119.699,164.633
0.067,7.141,4.975,4.975,-20.571,119.707,164.621
0.068,7.151,4.970,4.970,-20.568,119.717,164.618
0.069,7.171,4.960,4.960,-20.557,119.727,164.630
0.071,7.212,4.940,4.940,-20.533,119.738,164.662
0.072,7.282,4.911,4.911,-20.496,119.749,164.720
0.073,7.386,4.873,4.873,-20.441,119.759,164.808
0.075,7.531,4.828,4.828,-20.367,119.769,164.933
0.076,7.721,4.779,4.779,-20.272,119.777,165.097
0.077,7.952,4.726,4.726,-20.156,119.787,165.297
0.079,8.218,4.673,4.673,-20.021,119.800,165.525
0.080,8.512,4.621,4.621,-19.869,119.817,165.776
0.081,8.830,4.572,4.572,-19.699,119.841,166.044
0.082,9.165,4.527,4.527,-19.515,119.874,166.322
0.084,9.512,4.487,4.487,-19.317,119.917,166.603
0.085,9.866,4.454,4.453,-19.107,119.974,166.883
0.086,10.223,4.426,4.426,-18.885,120.045,167.153
0.088,10.579,4.407,4.407,-18.654,120.132,167.409
0.089,10.930,4.395,4.395,-18.415,120.239,167.644
0.090,11.277,4.392,4.392,-18.169,120.366,167.852
0.091,11.618,4.399,4.399,-17.918,120.513,168.029
0.093,11.953,4.415,4.415,-17.665,120.676,168.180
0.094,12.283,4.439,4.439,-17.414,120.850,168.305
0.095,12.605,4.471,4.472,-17.169,121.031,168.408
0.097,12.917,4.510,4.510,-16.931,121.215,168.491
0.098,13.214,4.554,4.554,-16.705,121.397,168.556
0.099,13.494,4.602,4.602,-16.494,121.572,168.606
0.100,13.751,4.654,4.654,-16.300,121.738,168.643
0.102,13.981,4.708,4.708,-16.128,121.888,168.670
0.103,14.179,4.764,4.763,-15.981,122.020,168.689
0.104,14.341,4.819,4.817,-15.861,122.127,168.703
0.106,14.462,4.871,4.869,-15.771,122.208,168.714
0.107,14.546,4.919,4.917,-15.709,122.264,168.723
0.108,14.598,4.961,4.959,-15.671,122.298,168.730
0.109,14.626,4.995,4.993,-15.650,122.316,168.735
0.111,14.635,5.019,5.019,-15.644,122.321,168.739
0.112,14.641,5.032,5.034,-15.646,122.317,168.743
0.113,14.651,5.036,5.039,-15.653,122.309,168.745
0.115,14.662,5.034,5.040,-15.660,122.302,168.747
0.116,14.667,5.030,5.037,-15.662,122.298,168.750
0.117,14.676,5.028,5.036,-15.655,122.302,168.752
0.118,14.703,5.032,5.040,-15.634,122.319,168.755
0.120,14.756,5.046,5.051,-15.594,122.353,168.759
0.121,14.837,5.072,5.073,-15.532,122.405,168.763
0.122,14.941,5.116,5.110,-15.453,122.474,168.769
0.124,15.066,5.173,5.159,-15.360,122.556,168.776
0.125,15.205,5.239,5.218,-15.256,122.648,168.783
0.126,15.355,5.310,5.283,-15.144,122.747,168.790
0.127,15.510,5.381,5.351,-15.029,122.851,168.799
0.129,15.666,5.447,5.419,-14.914,122.956,168.807
0.130,15.818,5.503,5.485,-14.802,123.059,168.816
0.131,15.962,5.545,5.544,-14.697,123.157,168.825
0.133,16.093,5.569,5.595,-14.603,123.247,168.833
0.134,16.206,5.578,5.637,-14.523,123.327,168.842
0.135,16.297,5.575,5.671,-14.461,123.392,168.850
0.136,16.365,5.564,5.696,-14.416,123.444,168.858
0.138,16.414,5.549,5.715,-14.387,123.482,168.866
0.139,16.445,5.533,5.727,-14.372,123.508,168.872
0.140,16.461,5.520,5.732,-14.369,123.523,168.879
0.142,16.471,5.515,5.731,-14.375,123.528,168.884
0.143,16.486,5.519,5.726,-14.389,123.524,168.889
0.144,16.509,5.530,5.716,-14.408,123.511,168.893
0.145,16.539,5.548,5.704,-14.431,123.492,168.896
0.147,16.575,5.570,5.691,-14.455,123.466,168.898
0.148,16.613,5.594,5.679,-14.478,123.436,168.899
0.149,16.653,5.617,5.667,-14.499,123.401,168.899
0.151,16.694,5.639,5.659,-14.515,123.364,168.898
0.152,16.733,5.657,5.655,-14.527,123.327,168.896
0.153,16.768,5.669,5.656,-14.535,123.293,168.893
0.154,16.797,5.676,5.660,-14.539,123.264,168.892
0.156,16.817,5.678,5.666,-14.541,123.244,168.891
0.157,16.826,5.675,5.671,-14.539,123.236,168.891
0.158,16.834,5.668,5.676,-14.535,123.241,168.894
0.160,16.858,5.658,5.677,-14.528,123.264,168.900
0.161,16.902,5.643,5.673,-14.520,123.307,168.909
0.162,16.969,5.625,5.663,-14.510,123.372,168.921
0.163,17.063,5.605,5.646,-14.499,123.463,168.938
0.165,17.185,5.583,5.625,-14.487,123.582,168.959
0.166,17.335,5.561,5.600,-14.475,123.730,168.986
0.167,17.508,5.539,5.575,-14.463,123.900,169.015
0.169,17.700,5.520,5.550,-14.450,124.089,169.047
0.170,17.905,5.505,5.527,-14.437,124.291,169.079
0.171,18.119,5.494,5.509,-14.424,124.502,169.110
0.172,18.336,5.489,5.496,-14.410,124.717,169.139
0.174,18.552,5.490,5.489,-14.397,124.931,169.165
0.175,18.762,5.495,5.487,-14.384,125.139,169.185
0.176,18.960,5.501,5.489,-14.371,125.337,169.200
0.178,19.143,5.509,5.494,-14.358,125.519,169.207
0.179,19.306,5.515,5.501,-14.345,125.681,169.205
0.180,19.445,5.519,5.508,-14.334,125.819,169.193
0.181,19.561,5.519,5.516,-14.322,125.933,169.172
0.183,19.657,5.512,5.522,-14.311,126.024,169.144
0.184,19.737,5.501,5.526,-14.302,126.096,169.110
0.185,19.803,5.486,5.529,-14.293,126.149,169.072
0.187,19.859,5.469,5.530,-14.286,126.187,169.032
0.188,19.907,5.451,5.529,-14.280,126.211,168.991
0.189,19.949,5.435,5.526,-14.275,126.223,168.951
0.190,19.986,5.422,5.521,-14.273,126.226,168.914
0.192,20.020,5.413,5.514,-14.272,126.221,168.881
0.193,20.048,5.410,5.505,-14.273,126.210,168.854
0.194,20.073,5.413,5.495,-14.277,126.196,168.835
0.196,20.093,5.419,5.484,-14.282,126.180,168.824
0.197,20.111,5.428,5.474,-14.289,126.164,168.820
0.198,20.128,5.437,5.466,-14.297,126.148,168.823
0.199,20.145,5.447,5.460,-14.304,126.134,168.829
0.201,20.160,5.455,5.457,-14.309,126.124,168.838
0.202,20.173,5.460,5.460,-14.313,126.117,168.849
0.203,20.184,5.461,5.467,-14.314,126.116,168.859
0.205,20.194,5.458,5.478,-14.311,126.122,168.868
0.206,20.211,5.451,5.491,-14.304,126.136,168.874
0.207,20.237,5.440,5.505,-14.291,126.158,168.875
0.208,20.275,5.426,5.517,-14.272,126.191,168.870
0.210,20.328,5.409,5.526,-14.246,126.235,168.858
0.211,20.395,5.389,5.531,-14.213,126.290,168.839
0.212,20.473,5.366,5.529,-14.175,126.354,168.814
0.214,20.562,5.341,5.519,-14.131,126.425,168.784
0.215,20.658,5.314,5.503,-14.084,126.502,168.750
0.216,20.760,5.286,5.482,-14.034,126.583,168.714
0.218,20.865,5.259,5.455,-13.982,126.666,168.678
0.219,20.970,5.232,5.425,-13.928,126.749,168.641
0.220,21.074,5.206,5.392,-13.875,126.832,168.605
0.221,21.175,5.183,5.357,-13.823,126.911,168.572
0.223,21.269,5.163,5.320,-13.773,126.986,168.543
0.224,21.356,5.147,5.284,-13.726,127.054,168.519
0.225,21.433,5.131,5.246,-13.682,127.115,168.501
0.227,21.503,5.116,5.207,-13.640,127.170,168.489
0.228,21.569,5.100,5.167,-13.598,127.220,168.485
0.229,21.635,5.080,5.124,-13.553,127.268,168.490
0.230,21.703,5.056,5.080,-13.505,127.315,168.503
0.232,21.779,5.025,5.032,-13.450,127.363,168.525
0.233,21.865,4.987,4.982,-13.388,127.413,168.558
0.234,21.966,4.942,4.929,-13.316,127.467,168.601
0.236,22.083,4.890,4.874,-13.231,127.527,168.655
0.237,22.219,4.835,4.818,-13.133,127.595,168.722
0.238,22.378,4.777,4.762,-13.019,127.672,168.801
0.239,22.562,4.719,4.708,-12.888,127.761,168.893
0.241,22.769,4.662,4.656,-12.739,127.860,168.999
0.242,22.996,4.609,4.607,-12.576,127.968,169.114
0.243,23.238,4.560,4.563,-12.403,128.082,169.238
0.245,23.489,4.517,4.522,-12.223,128.200,169.367
0.246,23.745,4.480,4.487,-12.039,128.320,169.501
0.247,24.002,4.447,4.455,-11.856,128.439,169.635
0.248,24.255,4.420,4.427,-11.676,128.554,169.769
0.250,24.498,4.398,4.404,-11.503,128.664,169.901
0.251,24.728,4.380,4.384,-11.340,128.766,170.026
0.252,24.939,4.367,4.368,-11.191,128.858,170.145
0.254,25.127,4.359,4.355,-11.059,128.937,170.254
0.255,25.289,4.354,4.346,-10.948,129.002,170.351
0.256,25.425,4.352,4.341,-10.855,129.052,170.437
0.257,25.539,4.353,4.339,-10.780,129.090,170.513
0.259,25.634,4.355,4.340,-10.718,129.117,170.581
0.260,25.715,4.359,4.345,-10.669,129.136,170.642
0.261,25.783,4.363,4.354,-10.629,129.146,170.697
0.263,25.844,4.367,4.366,-10.596,129.151,170.747
0.264,25.899,4.370,4.382,-10.567,129.152,170.794
0.265,25.952,4.372,4.400,-10.541,129.150,170.840
0.266,26.004,4.375,4.421,-10.514,129.148,170.885
0.268,26.058,4.379,4.443,-10.484,129.146,170.930
0.269,26.118,4.384,4.466,-10.449,129.146,170.978
0.270,26.183,4.391,4.488,-10.408,129.150,171.029
0.272,26.256,4.401,4.510,-10.361,129.159,171.084
0.273,26.335,4.414,4.530,-10.310,129.172,171.142
0.274,26.420,4.431,4.547,-10.255,129.191,171.204
0.275,26.511,4.450,4.562,-10.198,129.216,171.271
0.277,26.609,4.471,4.574,-10.140,129.247,171.343
0.278,26.713,4.491,4.584,-10.082,129.286,171.420
0.279,26.823,4.511,4.590,-10.026,129.333,171.503
0.281,26.940,4.528,4.593,-9.971,129.388,171.591
0.282,27.065,4.541,4.593,-9.921,129.452,171.685
0.283,27.198,4.550,4.589,-9.875,129.526,171.786
0.284,27.340,4.553,4.582,-9.835,129.610,171.893
0.286,27.491,4.552,4.573,-9.800,129.703,172.007
0.287,27.651,4.548,4.562,-9.769,129.805,172.125
0.288,27.816,4.542,4.551,-9.741,129.915,172.246
0.290,27.988,4.535,4.540,-9.713,130.031,172.370
0.291,28.163,4.528,4.531,-9.685,130.152,172.494
0.292,28.341,4.523,4.523,-9.656,130.277,172.617
0.293,28.520,4.520,4.519,-9.623,130.404,172.738
0.295,28.699,4.520,4.519,-9.585,130.534,172.855
0.296,28.877,4.524,4.522,-9.542,130.664,172.968
0.297,29.052,4.530,4.528,-9.491,130.794,173.075
0.299,29.225,4.538,4.536,-9.431,130.922,173.174
0.300,29.395,4.548,4.547,-9.361,131.048,173.264
0.301,29.564,4.560,4.559,-9.283,131.172,173.347
0.302,29.733,4.574,4.574,-9.197,131.297,173.423
0.304,29.903,4.589,4.589,-9.107,131.422,173.493
0.305,30.075,4.604,4.606,-9.012,131.550,173.559
0.306,30.249,4.622,4.623,-8.915,131.681,173.620
0.308,30.427,4.640,4.642,-8.816,131.817,173.679
0.309,30.609,4.661,4.663,-8.719,131.960,173.736
0.310,30.794,4.683,4.685,-8.624,132.109,173.792
0.311,30.985,4.707,4.709,-8.533,132.267,173.848
0.313,31.182,4.734,4.734,-8.447,132.434,173.906
0.314,31.385,4.762,4.761,-8.368,132.613,173.965
0.315,31.596,4.793,4.790,-8.297,132.801,174.027
0.317,31.812,4.826,4.821,-8.233,132.997,174.090
0.318,32.029,4.860,4.854,-8.176,133.197,174.154
0.319,32.247,4.896,4.889,-8.125,133.398,174.218
0.320,32.461,4.933,4.926,-8.081,133.599,174.282
0.322,32.670,4.970,4.966,-8.042,133.794,174.344
0.323,32.871,5.008,5.007,-8.009,133.982,174.405
0.324,33.060,5.046,5.051,-7.980,134.160,174.462
0.326,33.235,5.083,5.096,-7.956,134.325,174.516
0.327,33.393,5.120,5.141,-7.937,134.473,174.566
0.328,33.531,5.154,5.185,-7.921,134.603,174.612
0.329,33.646,5.186,5.226,-7.909,134.711,174.651
0.331,33.741,5.216,5.264,-7.899,134.799,174.685
0.332,33.819,5.241,5.296,-7.889,134.871,174.712
0.333,33.882,5.262,5.323,-7.879,134.929,174.733
0.335,33.934,5.279,5.343,-7.867,134.977,174.747
0.336,33.979,5.291,5.357,-7.850,135.019,174.754
0.337,34.022,5.301,5.367,-7.829,135.056,174.754
0.338,34.069,5.309,5.374,-7.801,135.093,174.746
0.340,34.125,5.316,5.379,-7.764,135.133,174.729
0.341,34.195,5.324,5.386,-7.718,135.179,174.705
0.342,34.281,5.334,5.394,-7.661,135.233,174.672
0.344,34.386,5.346,5.406,-7.591,135.300,174.630
0.345,34.512,5.362,5.422,-7.509,135.380,174.579
0.346,34.654,5.380,5.442,-7.416,135.472,174.521
0.347,34.810,5.401,5.464,-7.315,135.572,174.458
0.349,34.974,5.425,5.489,-7.209,135.678,174.392
0.350,35.142,5.450,5.514,-7.100,135.787,174.323
0.351,35.312,5.476,5.539,-6.991,135.896,174.255
0.353,35.477,5.502,5.562,-6.884,136.004,174.187
0.354,35.636,5.529,5.584,-6.782,136.107,174.123
0.355,35.782,5.555,5.602,-6.688,136.202,174.064
0.356,35.913,5.580,5.618,-6.603,136.288,174.012
0.358,36.024,5.604,5.632,-6.532,136.360,173.968
0.359,36.112,5.626,5.644,-6.475,136.418,173.933
0.360,36.177,5.645,5.655,-6.433,136.460,173.909
0.362,36.221,5.660,5.664,-6.405,136.489,173.892
0.363,36.246,5.672,5.673,-6.388,136.507,173.884
0.364,36.257,5.680,5.680,-6.380,136.514,173.881
0.366,36.260,5.683,5.688,-6.381,136.513,173.884
0.367,36.273,5.683,5.694,-6.389,136.506,173.891
0.368,36.293,5.680,5.700,-6.401,136.493,173.900
0.369,36.318,5.675,5.706,-6.417,136.477,173.912
0.371,36.345,5.669,5.711,-6.434,136.460,173.923
0.372,36.371,5.662,5.715,-6.451,136.443,173.934
0.373,36.394,5.656,5.718,-6.466,136.427,173.943
0.375,36.413,5.651,5.720,-6.478,136.415,173.949
0.376,36.426,5.647,5.721,-6.487,136.406,173.953
0.377,36.434,5.645,5.722,-6.493,136.400,173.955
0.378,36.438,5.644,5.722,-6.495,136.397,173.955
0.380,36.439,5.644,5.722,-6.495,136.398,173.954
0.381,36.444,5.646,5.722,-6.492,136.401,173.953
0.382,36.452,5.648,5.721,-6.486,136.407,173.951
0.384,36.465,5.651,5.721,-6.477,136.416,173.949
0.385,36.481,5.655,5.721,-6.466,136.428,173.949
0.386,36.500,5.660,5.721,-6.453,136.442,173.949
0.387,36.523,5.665,5.722,-6.437,136.458,173.951
0.389,36.550,5.671,5.723,-6.419,136.477,173.955
0.390,36.579,5.677,5.725,-6.399,136.498,173.961
0.391,36.611,5.684,5.727,-6.378,136.521,173.969
0.393,36.644,5.690,5.730,-6.357,136.544,173.978
0.394,36.678,5.696,5.733,-6.335,136.568,173.989
0.395,36.712,5.703,5.737,-6.314,136.591,174.002
0.396,36.744,5.708,5.743,-6.294,136.612,174.015
0.398,36.775,5.713,5.748,-6.276,136.632,174.029
0.399,36.802,5.717,5.755,-6.260,136.650,174.044
0.400,36.827,5.720,5.762,-6.247,136.665,174.059
0.402,36.848,5.721,5.770,-6.238,136.676,174.074
0.403,36.865,5.721,5.779,-6.233,136.683,174.089
0.404,36.880,5.718,5.789,-6.233,136.685,174.103
0.405,36.894,5.714,5.799,-6.236,136.683,174.117
0.407,36.909,5.708,5.809,-6.242,136.678,174.130
0.408,36.925,5.702,5.819,-6.250,136.672,174.142
0.409,36.939,5.696,5.827,-6.258,136.665,174.152
0.411,36.952,5.691,5.834,-6.265,136.659,174.161
0.412,36.961,5.689,5.839,-6.270,136.655,174.168
0.413,36.966,5.689,5.841,-6.271,136.653,174.172
0.414,36.971,5.693,5.839,-6.268,136.656,174.174
0.416,36.983,5.701,5.834,-6.259,136.665,174.173
0.417,37.005,5.713,5.826,-6.243,136.679,174.169
0.418,37.038,5.726,5.817,-6.220,136.702,174.162
0.420,37.084,5.740,5.807,-6.187,136.733,174.153
0.421,37.140,5.753,5.798,-6.146,136.770,174.145
0.422,37.206,5.765,5.790,-6.097,136.814,174.142
0.423,37.282,5.773,5.784,-6.040,136.864,174.149
0.425,37.368,5.778,5.782,-5.976,136.917,174.169
0.426,37.466,5.778,5.784,-5.905,136.974,174.207
0.427,37.580,5.776,5.790,-5.828,137.033,174.265
0.429,37.713,5.773,5.800,-5.744,137.093,174.349
0.430,37.868,5.770,5.815,-5.655,137.154,174.461
0.431,38.052,5.769,5.833,-5.560,137.214,174.607
0.432,38.267,5.773,5.855,-5.461,137.272,174.789
0.434,38.519,5.781,5.881,-5.357,137.327,175.011
0.435,38.804,5.797,5.911,-5.249,137.380,175.270
0.436,39.118,5.820,5.945,-5.140,137.429,175.559
0.438,39.451,5.850,5.982,-5.029,137.477,175.871
0.439,39.799,5.888,6.023,-4.920,137.522,176.198
0.440,40.153,5.931,6.067,-4.812,137.565,176.533
0.441,40.508,5.981,6.114,-4.707,137.606,176.868
0.443,40.854,6.036,6.164,-4.607,137.645,177.198
0.444,41.186,6.096,6.217,-4.513,137.683,177.514
0.445,41.495,6.162,6.273,-4.427,137.720,177.809
0.447,41.776,6.230,6.330,-4.349,137.755,178.075
0.448,42.020,6.299,6.386,-4.281,137.790,178.307
0.449,42.222,6.367,6.440,-4.223,137.824,178.499
0.450,42.387,6.430,6.490,-4.177,137.858,178.653
0.452,42.518,6.488,6.534,-4.139,137.890,178.774
0.453,42.619,6.536,6.571,-4.109,137.921,178.866
0.454,42.695,6.574,6.598,-4.087,137.951,178.932
0.456,42.751,6.598,6.615,-4.071,137.979,178.978
0.457,42.792,6.611,6.621,-4.061,138.006,179.007
0.458,42.822,6.614,6.621,-4.055,138.031,179.022
0.459,42.846,6.611,6.615,-4.052,138.053,179.030
0.461,42.867,6.603,6.606,-4.052,138.074,179.032
0.462,42.885,6.593,6.596,-4.053,138.092,179.034
0.463,42.902,6.583,6.588,-4.055,138.108,179.040
0.465,42.919,6.576,6.583,-4.056,138.121,179.051
0.466,42.938,6.575,6.584,-4.058,138.132,179.067
0.467,42.961,6.577,6.590,-4.058,138.141,179.087
0.468,42.986,6.583,6.599,-4.058,138.149,179.111
0.470,43.015,6.592,6.610,-4.057,138.156,179.140
0.471,43.047,6.603,6.623,-4.054,138.162,179.171
0.472,43.082,6.614,6.637,-4.050,138.167,179.205
0.474,43.120,6.624,6.649,-4.043,138.173,179.242
0.475,43.160,6.634,6.659,-4.035,138.179,179.280
0.476,43.202,6.641,6.666,-4.024,138.185,179.320
0.477,43.245,6.647,6.671,-4.010,138.193,179.361
0.479,43.291,6.653,6.674,-3.993,138.202,179.403
0.480,43.339,6.659,6.677,-3.974,138.211,179.445
0.481,43.389,6.666,6.680,-3.952,138.222,179.489
0.483,43.441,6.675,6.684,-3.929,138.232,179.534
0.484,43.496,6.687,6.691,-3.904,138.242,179.582
0.485,43.553,6.702,6.700,-3.877,138.252,179.632
0.486,43.614,6.720,6.712,-3.850,138.260,179.686
0.488,43.677,6.741,6.728,-3.823,138.267,179.742
0.489,43.744,6.764,6.745,-3.796,138.272,179.803
0.490,43.814,6.785,6.765,-3.769,138.274,179.868
0.492,43.888,6.806,6.786,-3.742,138.274,179.937
0.493,43.967,6.823,6.807,-3.717,138.270,180.012
0.494,44.050,6.836,6.829,-3.694,138.263,180.092
0.495,44.137,6.844,6.851,-3.671,138.254,180.174
0.497,44.224,6.846,6.871,-3.651,138.243,180.259
0.498,44.312,6.844,6.891,-3.633,138.230,180.344
0.499,44.398,6.838,6.909,-3.616,138.218,180.428
0.501,44.481,6.830,6.926,-3.602,138.206,180.508
0.502,44.559,6.822,6.939,-3.591,138.195,180.585
0.503,44.630,6.815,6.950,-3.582,138.186,180.655
0.505,44.694,6.809,6.958,-3.575,138.180,180.718
0.506,44.748,6.807,6.961,-3.572,138.178,180.771
0.507,44.790,6.807,6.962,-3.572,138.179,180.814
0.508,44.822,6.810,6.959,-3.574,138.186,180.845
0.510,44.845,6.814,6.953,-3.580,138.196,180.865
0.511,44.863,6.819,6.946,-3.587,138.209,180.874
0.512,44.879,6.823,6.938,-3.595,138.223,180.876
0.514,44.895,6.825,6.929,-3.603,138.236,180.872
0.515,44.910,6.825,6.921,-3.609,138.247,180.864
0.516,44.923,6.821,6.913,-3.613,138.255,180.854
0.517,44.934,6.813,6.905,-3.614,138.256,180.843
0.519,44.945,6.802,6.899,-3.612,138.251,180.833
0.520,44.963,6.787,6.892,-3.604,138.237,180.827
0.521,44.991,6.768,6.887,-3.590,138.212,180.826
0.523,45.033,6.746,6.882,-3.569,138.176,180.831
0.524,45.091,6.721,6.877,-3.540,138.128,180.845
0.525,45.165,6.692,6.872,-3.501,138.070,180.870
0.526,45.254,6.660,6.868,-3.450,138.007,180.907
0.528,45.359,6.623,6.861,-3.385,137.943,180.959
0.529,45.482,6.581,6.849,-3.305,137.881,181.028
