"T","Distance","Radius","FreeRadius","X","Y","Z"
0.000,0.000,2.372,2.372,205.802,190.853,180.385
0.001,0.398,2.489,2.489,206.010,190.727,180.700
0.002,0.794,2.606,2.606,206.217,190.601,181.013
0.004,1.182,2.721,2.721,206.420,190.478,181.320
0.005,1.562,2.834,2.834,206.619,190.357,181.620
0.006,1.928,2.944,2.944,206.810,190.242,181.910
0.007,2.278,3.052,3.052,206.994,190.132,182.188
0.009,2.609,3.155,3.155,207.167,190.028,182.450
0.010,2.918,3.254,3.254,207.328,189.932,182.695
0.011,3.201,3.348,3.348,207.475,189.845,182.920
0.012,3.455,3.436,3.436,207.608,189.768,183.123
0.013,3.677,3.519,3.519,207.723,189.702,183.301
0.015,3.864,3.594,3.594,207.820,189.648,183.451
0.016,4.012,3.664,3.664,207.897,189.607,183.571
0.017,4.125,3.725,3.725,207.955,189.579,183.664
0.018,4.204,3.779,3.779,207.994,189.561,183.730
0.019,4.254,3.826,3.826,208.019,189.553,183.774
0.021,4.280,3.863,3.863,208.029,189.552,183.797
0.022,4.289,3.892,3.892,208.027,189.558,183.804
0.023,4.307,3.914,3.914,208.014,189.569,183.796
0.024,4.339,3.928,3.928,207.993,189.583,183.778
0.026,4.381,3.935,3.935,207.966,189.599,183.750
0.027,4.430,3.935,3.935,207.933,189.615,183.717
0.028,4.482,3.930,3.930,207.898,189.630,183.682
0.029,4.535,3.920,3.920,207.861,189.643,183.647
0.030,4.584,3.905,3.905,207.824,189.651,183.614
0.032,4.628,3.886,3.886,207.790,189.654,183.586
0.033,4.667,3.865,3.865,207.760,189.654,183.563
0.034,4.698,3.843,3.843,207.734,189.650,183.545
0.035,4.723,3.821,3.821,207.715,189.642,183.532
0.036,4.740,3.802,3.802,207.703,189.633,183.524
0.038,4.751,3.787,3.787,207.701,189.622,183.521
0.039,4.766,3.777,3.777,207.709,189.610,183.523
0.040,4.791,3.775,3.775,207.729,189.597,183.531
0.041,4.829,3.781,3.781,207.762,189.585,183.544
0.043,4.881,3.796,3.796,207.810,189.573,183.563
0.044,4.950,3.817,3.817,207.874,189.563,183.587
0.045,5.037,3.846,3.846,207.955,189.555,183.617
0.046,5.142,3.880,3.880,208.054,189.549,183.653
0.047,5.263,3.919,3.919,208.168,189.544,183.693
0.049,5.397,3.961,3.961,208.294,189.539,183.737
0.050,5.541,4.006,4.006,208.430,189.533,183.784
0.051,5.693,4.053,4.053,208.573,189.525,183.832
0.052,5.848,4.102,4.102,208.720,189.515,183.881
0.054,6.005,4.151,4.151,208.869,189.499,183.929
0.055,6.161,4.201,4.201,209.016,189.479,183.975
0.056,6.313,4.252,4.252,209.160,189.452,184.020
0.057,6.459,4.302,4.302,209.296,189.418,184.060
0.058,6.598,4.352,4.352,209.423,189.375,184.096
0.060,6.727,4.401,4.401,209.537,189.322,184.126
0.061,6.847,4.449,4.449,209.636,189.259,184.150
0.062,6.960,4.495,4.495,209.722,189.187,184.168
0.063,7.069,4.540,4.540,209.794,189.108,184.180
0.064,7.173,4.582,4.582,209.855,189.024,184.189
0.066,7.274,4.620,4.620,209.906,188.937,184.193
0.067,7.372,4.656,4.656,209.948,188.848,184.196
0.068,7.467,4.687,4.687,209.983,188.760,184.196
0.069,7.557,4.713,4.713,210.011,188.674,184.195
0.071,7.641,4.734,4.734,210.034,188.593,184.194
0.072,7.718,4.749,4.749,210.053,188.519,184.194
0.073,7.786,4.759,4.759,210.070,188.453,184.196
0.074,7.844,4.764,4.764,210.086,188.397,184.199
0.075,7.891,4.766,4.766,210.102,188.353,184.206
0.077,7.929,4.765,4.765,210.119,188.322,184.217
0.078,7.960,4.762,4.762,210.137,188.301,184.231
0.079,7.988,4.759,4.759,210.157,188.289,184.248
0.080,8.019,4.755,4.755,210.178,188.286,184.270
0.082,8.053,4.751,4.751,210.200,188.289,184.296
0.083,8.093,4.749,4.749,210.225,188.297,184.326
0.084,8.138,4.747,4.747,210.252,188.309,184.360
0.085,8.189,4.747,4.747,210.281,188.324,184.399
0.086,8.245,4.748,4.748,210.313,188.340,184.442
0.088,8.306,4.751,4.751,210.348,188.356,184.490
0.089,8.373,4.756,4.756,210.386,188.370,184.543
0.090,8.444,4.762,4.762,210.427,188.381,184.600
0.091,8.521,4.770,4.770,210.472,188.389,184.662
0.092,8.603,4.780,4.780,210.520,188.393,184.728
0.094,8.688,4.790,4.790,210.573,188.395,184.794
0.095,8.776,4.800,4.800,210.629,188.394,184.862
0.096,8.866,4.809,4.809,210.690,188.390,184.928
0.097,8.958,4.815,4.815,210.756,188.385,184.992
0.099,9.051,4.817,4.817,210.826,188.378,185.053
0.100,9.145,4.814,4.814,210.901,188.370,185.108
0.101,9.239,4.806,4.806,210.982,188.360,185.157
0.102,9.335,4.791,4.791,211.068,188.351,185.199
0.103,9.433,4.771,4.771,211.159,188.341,185.231
0.105,9.533,4.747,4.747,211.257,188.331,185.252
0.106,9.637,4.720,4.720,211.360,188.321,185.263
0.107,9.746,4.692,4.692,211.468,188.311,185.264
0.108,9.859,4.665,4.665,211.581,188.301,185.257
0.109,9.977,4.639,4.639,211.698,188.289,185.245
0.111,10.099,4.617,4.617,211.818,188.276,185.228
0.112,10.224,4.599,4.599,211.940,188.261,185.209
0.113,10.351,4.586,4.586,212.065,188.244,185.190
0.114,10.480,4.577,4.577,212.191,188.224,185.172
0.116,10.610,4.571,4.571,212.317,188.201,185.157
0.117,10.739,4.566,4.566,212.444,188.174,185.148
0.118,10.869,4.564,4.564,212.569,188.143,185.145
0.119,10.998,4.561,4.561,212.694,188.107,185.151
0.120,11.128,4.558,4.558,212.816,188.067,185.168
0.122,11.259,4.554,4.554,212.937,188.022,185.194
0.123,11.392,4.548,4.548,213.055,187.973,185.228
0.124,11.527,4.541,4.541,213.173,187.922,185.269
0.125,11.663,4.534,4.534,213.290,187.868,185.314
0.127,11.800,4.528,4.528,213.405,187.813,185.363
0.128,11.938,4.523,4.523,213.521,187.758,185.414
0.129,12.076,4.520,4.520,213.636,187.702,185.466
0.130,12.214,4.521,4.521,213.752,187.648,185.516
0.131,12.350,4.525,4.525,213.868,187.595,185.564
0.133,12.484,4.534,4.534,213.985,187.545,185.607
0.134,12.617,4.546,4.546,214.103,187.498,185.645
0.135,12.747,4.562,4.562,214.223,187.455,185.675
0.136,12.876,4.581,4.581,214.344,187.416,185.698
0.137,13.004,4.601,4.601,214.465,187.380,185.716
0.139,13.130,4.624,4.624,214.585,187.345,185.729
0.140,13.254,4.647,4.647,214.704,187.312,185.740
0.141,13.376,4.671,4.671,214.821,187.278,185.749
0.142,13.496,4.695,4.695,214.935,187.244,185.758
0.144,13.613,4.718,4.718,215.046,187.207,185.768
0.145,13.727,4.741,4.741,215.152,187.168,185.781
0.146,13.838,4.765,4.765,215.253,187.124,185.798
0.147,13.947,4.788,4.788,215.348,187.076,185.821
0.148,14.054,4.811,4.811,215.436,187.022,185.851
0.150,14.162,4.834,4.834,215.516,186.961,185.889
0.151,14.272,4.858,4.858,215.589,186.893,185.937
0.152,14.386,4.881,4.881,215.656,186.820,185.992
0.153,14.504,4.905,4.905,215.718,186.741,186.055
0.155,14.627,4.930,4.930,215.777,186.659,186.124
0.156,14.753,4.955,4.955,215.835,186.575,186.199
0.157,14.884,4.982,4.982,215.893,186.489,186.278
0.158,15.017,5.010,5.010,215.952,186.403,186.361
0.159,15.153,5.040,5.040,216.015,186.318,186.447
0.161,15.291,5.072,5.072,216.082,186.236,186.535
0.162,15.432,5.106,5.106,216.156,186.156,186.624
0.163,15.574,5.142,5.142,216.238,186.082,186.713
0.164,15.718,5.181,5.181,216.329,186.012,186.802
0.165,15.866,5.221,5.221,216.430,185.950,186.888
0.167,16.016,5.263,5.263,216.541,185.894,186.973
0.168,16.168,5.306,5.306,216.658,185.844,187.055
0.169,16.321,5.350,5.350,216.782,185.800,187.135
0.170,16.474,5.395,5.395,216.908,185.762,187.211
0.172,16.625,5.440,5.440,217.037,185.730,187.284
0.173,16.773,5.485,5.485,217.165,185.703,187.353
0.174,16.917,5.530,5.530,217.292,185.682,187.418
0.175,17.054,5.573,5.573,217.414,185.666,187.478
0.176,17.184,5.615,5.615,217.532,185.654,187.532
0.178,17.305,5.655,5.655,217.642,185.647,187.582
0.179,17.415,5.691,5.691,217.743,185.645,187.625
0.180,17.512,5.724,5.724,217.833,185.646,187.662
0.181,17.598,5.753,5.753,217.912,185.652,187.694
0.182,17.671,5.777,5.777,217.981,185.660,187.719
0.184,17.734,5.796,5.796,218.039,185.672,187.739
0.185,17.787,5.811,5.811,218.088,185.686,187.753
0.186,17.832,5.820,5.820,218.129,185.702,187.763
0.187,17.868,5.825,5.825,218.160,185.719,187.768
0.189,17.898,5.826,5.825,218.184,185.737,187.768
0.190,17.923,5.822,5.822,218.201,185.756,187.764
0.191,17.946,5.814,5.814,218.210,185.775,187.757
0.192,17.967,5.802,5.802,218.213,185.793,187.746
0.193,17.990,5.786,5.786,218.210,185.811,187.732
0.195,18.015,5.768,5.768,218.201,185.827,187.714
0.196,18.043,5.749,5.749,218.188,185.841,187.695
0.197,18.071,5.730,5.731,218.173,185.854,187.675
0.198,18.099,5.714,5.715,218.156,185.864,187.656
0.200,18.123,5.701,5.702,218.140,185.872,187.638
0.201,18.143,5.694,5.694,218.126,185.876,187.625
0.202,18.157,5.692,5.692,218.116,185.878,187.616
0.203,18.162,5.698,5.697,218.111,185.877,187.614
0.204,18.170,5.710,5.709,218.114,185.872,187.620
0.206,18.191,5.729,5.726,218.125,185.863,187.635
0.207,18.227,5.752,5.749,218.147,185.850,187.660
0.208,18.281,5.778,5.775,218.181,185.833,187.698
0.209,18.354,5.807,5.804,218.228,185.810,187.750
0.210,18.448,5.838,5.835,218.290,185.784,187.815
0.212,18.559,5.868,5.867,218.364,185.753,187.892
0.213,18.684,5.898,5.900,218.448,185.719,187.978
0.214,18.820,5.926,5.932,218.539,185.683,188.072
0.215,18.963,5.952,5.962,218.635,185.646,188.171
0.217,19.110,5.976,5.990,218.734,185.607,188.273
0.218,19.258,5.996,6.015,218.833,185.568,188.376
0.219,19.403,6.013,6.037,218.931,185.530,188.476
0.220,19.542,6.025,6.055,219.024,185.494,188.573
0.221,19.672,6.033,6.067,219.110,185.459,188.664
0.223,19.789,6.035,6.074,219.188,185.428,188.746
0.224,19.891,6.033,6.075,219.254,185.400,188.817
0.225,19.974,6.026,6.071,219.307,185.376,188.876
0.226,20.039,6.017,6.064,219.348,185.357,188.923
0.227,20.089,6.006,6.055,219.378,185.341,188.960
0.229,20.125,5.995,6.044,219.398,185.328,188.987
0.230,20.149,5.985,6.034,219.409,185.318,189.006
0.231,20.164,5.977,6.025,219.413,185.310,189.019
0.232,20.173,5.973,6.018,219.410,185.304,189.025
0.234,20.183,5.973,6.015,219.403,185.299,189.027
0.235,20.194,5.977,6.015,219.393,185.295,189.027
0.236,20.208,5.984,6.017,219.380,185.291,189.024
0.237,20.223,5.993,6.021,219.366,185.286,189.020
0.238,20.238,6.004,6.026,219.352,185.281,189.017
0.240,20.251,6.016,6.032,219.340,185.275,189.016
0.241,20.263,6.028,6.037,219.330,185.268,189.017
0.242,20.275,6.039,6.041,219.322,185.260,189.020
0.243,20.285,6.049,6.044,219.318,185.252,189.025
0.245,20.296,6.057,6.046,219.316,185.243,189.031
0.246,20.308,6.063,6.046,219.318,185.235,189.039
0.247,20.322,6.066,6.045,219.324,185.226,189.048
0.248,20.339,6.067,6.044,219.333,185.219,189.059
0.249,20.358,6.064,6.043,219.348,185.212,189.071
0.251,20.382,6.058,6.042,219.367,185.206,189.084
0.252,20.410,6.049,6.042,219.391,185.201,189.098
0.253,20.443,6.035,6.042,219.420,185.199,189.112
0.254,20.481,6.018,6.042,219.455,185.198,189.128
0.255,20.525,5.996,6.042,219.496,185.199,189.145
0.257,20.575,5.971,6.038,219.542,185.202,189.165
0.258,20.632,5.941,6.029,219.592,185.206,189.190
0.259,20.696,5.906,6.015,219.647,185.212,189.222
0.260,20.767,5.868,5.992,219.705,185.219,189.262
0.262,20.847,5.825,5.959,219.766,185.226,189.314
0.263,20.938,5.777,5.915,219.830,185.234,189.378
0.264,21.041,5.726,5.859,219.896,185.242,189.456
0.265,21.157,5.671,5.793,219.963,185.249,189.550
0.266,21.288,5.615,5.720,220.032,185.257,189.663
0.268,21.438,5.558,5.644,220.100,185.264,189.795
0.269,21.606,5.502,5.566,220.169,185.270,189.949
0.270,21.795,5.448,5.490,220.238,185.274,190.125
0.271,22.000,5.398,5.419,220.306,185.278,190.318
0.273,22.218,5.353,5.356,220.376,185.280,190.524
0.274,22.443,5.313,5.302,220.448,185.280,190.737
0.275,22.671,5.279,5.258,220.523,185.279,190.953
0.276,22.898,5.247,5.221,220.601,185.276,191.166
0.277,23.120,5.216,5.189,220.684,185.270,191.372
0.279,23.332,5.186,5.160,220.771,185.262,191.565
0.280,23.532,5.152,5.132,220.864,185.252,191.741
0.281,23.716,5.115,5.103,220.964,185.239,191.895
0.282,23.882,5.072,5.071,221.071,185.223,192.021
0.283,24.032,5.021,5.033,221.187,185.204,192.116
0.285,24.171,4.963,4.989,221.310,185.181,192.174
0.286,24.308,4.899,4.941,221.443,185.155,192.199
0.287,24.451,4.832,4.890,221.582,185.125,192.196
0.288,24.603,4.764,4.836,221.728,185.089,192.172
0.290,24.765,4.697,4.780,221.880,185.048,192.130
0.291,24.937,4.633,4.725,222.037,185.001,192.078
0.292,25.116,4.574,4.671,222.197,184.946,192.020
0.293,25.301,4.522,4.620,222.361,184.884,191.961
0.294,25.489,4.479,4.571,222.527,184.814,191.908
0.296,25.679,4.442,4.524,222.694,184.736,191.865
0.297,25.870,4.409,4.479,222.862,184.647,191.838
0.298,26.065,4.379,4.435,223.030,184.549,191.832
0.299,26.265,4.349,4.390,223.196,184.440,191.853
0.300,26.473,4.318,4.344,223.361,184.322,191.900
0.302,26.691,4.284,4.296,223.524,184.195,191.970
0.303,26.917,4.245,4.245,223.683,184.062,192.059
0.304,27.149,4.198,4.192,223.839,183.925,192.163
0.305,27.386,4.147,4.135,223.992,183.785,192.278
0.307,27.624,4.091,4.079,224.139,183.644,192.401
0.308,27.861,4.035,4.023,224.281,183.504,192.528
0.309,28.092,3.980,3.970,224.418,183.367,192.655
0.310,28.316,3.928,3.920,224.548,183.234,192.778
0.311,28.527,3.881,3.877,224.672,183.107,192.894
0.313,28.724,3.842,3.841,224.788,182.988,192.999
0.314,28.902,3.812,3.813,224.896,182.879,193.088
0.315,29.060,3.792,3.795,224.996,182.781,193.161
0.316,29.200,3.780,3.784,225.088,182.692,193.219
0.318,29.323,3.776,3.779,225.172,182.614,193.264
0.319,29.431,3.777,3.780,225.248,182.544,193.297
0.320,29.526,3.782,3.785,225.316,182.483,193.320
0.321,29.607,3.791,3.792,225.378,182.431,193.334
0.322,29.678,3.801,3.802,225.431,182.386,193.341
0.324,29.738,3.812,3.812,225.478,182.348,193.344
0.325,29.788,3.823,3.822,225.518,182.318,193.343
0.326,29.829,3.833,3.832,225.551,182.293,193.341
0.327,29.862,3.841,3.841,225.577,182.274,193.338
0.328,29.886,3.849,3.848,225.597,182.260,193.337
0.330,29.903,3.855,3.854,225.611,182.251,193.339
0.331,29.916,3.859,3.858,225.621,182.245,193.345
0.332,29.929,3.861,3.861,225.630,182.241,193.353
0.333,29.944,3.861,3.861,225.640,182.237,193.364
0.335,29.963,3.858,3.858,225.652,182.231,193.377
0.336,29.989,3.854,3.854,225.670,182.222,193.393
0.337,30.023,3.850,3.850,225.696,182.209,193.411
0.338,30.068,3.847,3.847,225.731,182.190,193.432
0.339,30.127,3.847,3.847,225.779,182.164,193.454
0.341,30.202,3.849,3.850,225.841,182.128,193.478
0.342,30.297,3.857,3.857,225.920,182.082,193.505
0.343,30.415,3.871,3.871,226.018,182.024,193.532
0.344,30.556,3.892,3.892,226.137,181.953,193.561
0.345,30.719,3.919,3.919,226.274,181.870,193.591
0.347,30.900,3.953,3.953,226.426,181.778,193.622
0.348,31.093,3.990,3.990,226.589,181.678,193.652
0.349,31.294,4.032,4.032,226.759,181.575,193.682
0.350,31.499,4.075,4.075,226.933,181.470,193.710
0.352,31.703,4.120,4.120,227.105,181.365,193.737
0.353,31.901,4.164,4.164,227.274,181.263,193.761
0.354,32.089,4.208,4.208,227.434,181.167,193.783
0.355,32.263,4.250,4.250,227.582,181.079,193.801
0.356,32.416,4.289,4.289,227.715,181.002,193.815
0.358,32.547,4.325,4.325,227.827,180.938,193.824
0.359,32.648,4.359,4.358,227.917,180.889,193.828
0.360,32.722,4.388,4.388,227.983,180.855,193.828
0.361,32.772,4.414,4.413,228.028,180.834,193.823
0.363,32.803,4.435,4.435,228.056,180.824,193.816
0.364,32.819,4.451,4.451,228.069,180.822,193.807
0.365,32.829,4.462,4.462,228.070,180.826,193.798
0.366,32.843,4.469,4.470,228.063,180.834,193.788
0.367,32.860,4.472,4.473,228.051,180.842,193.781
0.369,32.878,4.473,4.475,228.036,180.849,193.775
0.370,32.893,4.472,4.474,228.021,180.853,193.773
0.371,32.905,4.470,4.473,228.010,180.850,193.775
0.372,32.919,4.468,4.473,228.005,180.839,193.782
0.373,32.945,4.467,4.473,228.009,180.817,193.796
0.375,32.988,4.468,4.475,228.025,180.783,193.817
0.376,33.048,4.471,4.479,228.052,180.738,193.845
0.377,33.123,4.476,4.486,228.089,180.681,193.879
0.378,33.214,4.484,4.497,228.135,180.615,193.919
0.380,33.319,4.495,4.511,228.191,180.539,193.965
0.381,33.437,4.510,4.529,228.256,180.454,194.016
0.382,33.568,4.528,4.552,228.329,180.361,194.072
0.383,33.711,4.550,4.580,228.409,180.261,194.134
0.384,33.863,4.577,4.614,228.497,180.154,194.199
0.386,34.026,4.608,4.653,228.591,180.042,194.269
0.387,34.197,4.643,4.696,228.692,179.924,194.342
0.388,34.376,4.683,4.745,228.797,179.802,194.419
0.389,34.561,4.727,4.797,228.908,179.677,194.499
0.391,34.751,4.775,4.853,229.022,179.549,194.581
0.392,34.942,4.827,4.913,229.137,179.422,194.665
0.393,35.132,4.883,4.974,229.251,179.295,194.748
0.394,35.318,4.943,5.039,229.364,179.171,194.831
0.395,35.499,5.006,5.104,229.472,179.052,194.913
0.397,35.671,5.071,5.169,229.575,178.940,194.992
0.398,35.831,5.136,5.233,229.670,178.835,195.067
0.399,35.978,5.198,5.293,229.756,178.739,195.138
0.400,36.108,5.257,5.348,229.831,178.655,195.203
0.401,36.219,5.309,5.397,229.893,178.584,195.262
0.403,36.310,5.355,5.437,229.940,178.527,195.314
0.404,36.377,5.390,5.467,229.972,178.486,195.358
0.405,36.424,5.415,5.486,229.988,178.460,195.393
0.406,36.455,5.430,5.494,229.993,178.446,195.420
0.408,36.474,5.436,5.495,229.989,178.443,195.439
0.409,36.488,5.436,5.490,229.980,178.446,195.449
0.410,36.504,5.430,5.481,229.968,178.455,195.451
0.411,36.521,5.421,5.470,229.956,178.466,195.444
0.412,36.542,5.409,5.459,229.947,178.478,195.429
0.414,36.567,5.397,5.450,229.944,178.487,195.406
0.415,36.600,5.386,5.445,229.950,178.492,195.375
0.416,36.643,5.377,5.445,229.969,178.490,195.335
0.417,36.703,5.370,5.449,230.002,178.478,195.287
0.418,36.782,5.365,5.457,230.053,178.454,195.232
0.420,36.883,5.363,5.468,230.123,178.418,195.168
0.421,37.003,5.363,5.483,230.209,178.371,195.099
0.422,37.138,5.366,5.501,230.309,178.315,195.026
0.423,37.287,5.372,5.521,230.420,178.252,194.951
0.425,37.445,5.382,5.543,230.540,178.184,194.874
0.426,37.610,5.395,5.566,230.668,178.112,194.798
0.427,37.778,5.410,5.591,230.800,178.037,194.725
0.428,37.947,5.428,5.617,230.934,177.962,194.656
0.429,38.113,5.447,5.644,231.069,177.889,194.592
0.431,38.273,5.468,5.671,231.201,177.818,194.536
0.432,38.425,5.489,5.697,231.329,177.753,194.488
0.433,38.564,5.511,5.723,231.450,177.693,194.451
0.434,38.691,5.531,5.749,231.562,177.641,194.426
0.436,38.807,5.552,5.773,231.668,177.596,194.411
0.437,38.913,5.571,5.797,231.767,177.557,194.405
0.438,39.013,5.591,5.819,231.860,177.523,194.409
0.439,39.107,5.612,5.842,231.949,177.493,194.420
0.440,39.198,5.633,5.865,232.035,177.467,194.438
0.442,39.288,5.656,5.888,232.118,177.443,194.461
0.443,39.378,5.682,5.911,232.200,177.421,194.490
0.444,39.468,5.710,5.936,232.282,177.401,194.522
0.445,39.560,5.742,5.962,232.364,177.380,194.558
0.446,39.654,5.776,5.989,232.448,177.359,194.595
0.448,39.751,5.813,6.017,232.534,177.336,194.633
0.449,39.852,5.851,6.046,232.624,177.311,194.672
0.450,39.956,5.891,6.076,232.717,177.285,194.710
0.451,40.060,5.931,6.106,232.810,177.257,194.747
0.453,40.164,5.970,6.137,232.904,177.230,194.783
0.454,40.266,6.009,6.168,232.996,177.202,194.818
0.455,40.365,6.046,6.198,233.085,177.176,194.850
0.456,40.458,6.081,6.229,233.170,177.151,194.881
0.457,40.545,6.114,6.258,233.249,177.128,194.908
0.459,40.625,6.145,6.285,233.322,177.109,194.933
0.460,40.694,6.173,6.311,233.387,177.093,194.955
0.461,40.753,6.198,6.333,233.442,177.082,194.972
0.462,40.800,6.221,6.351,233.486,177.075,194.986
0.464,40.834,6.241,6.365,233.518,177.075,194.995
0.465,40.856,6.257,6.373,233.540,177.079,194.999
0.466,40.871,6.271,6.377,233.553,177.086,195.000
0.467,40.883,6.281,6.376,233.560,177.095,194.998
0.468,40.894,6.289,6.373,233.563,177.105,194.992
0.470,40.905,6.295,6.369,233.566,177.112,194.985
0.471,40.917,6.299,6.365,233.571,177.117,194.975
0.472,40.932,6.301,6.363,233.579,177.117,194.963
0.473,40.952,6.302,6.365,233.595,177.111,194.951
0.474,40.983,6.302,6.372,233.619,177.097,194.938
0.476,41.028,6.302,6.386,233.655,177.073,194.925
0.477,41.091,6.301,6.405,233.705,177.039,194.912
0.478,41.174,6.302,6.429,233.772,176.992,194.900
0.479,41.277,6.305,6.457,233.856,176.932,194.888
0.481,41.399,6.311,6.487,233.955,176.862,194.879
0.482,41.535,6.321,6.518,234.066,176.783,194.870
0.483,41.684,6.335,6.548,234.188,176.697,194.863
0.484,41.841,6.355,6.577,234.317,176.608,194.857
0.485,42.004,6.381,6.602,234.451,176.515,194.853
0.487,42.169,6.413,6.624,234.587,176.423,194.850
0.488,42.334,6.450,6.643,234.725,176.332,194.849
0.489,42.494,6.490,6.659,234.860,176.245,194.850
0.490,42.648,6.530,6.673,234.991,176.164,194.853
0.491,42.792,6.570,6.685,235.115,176.091,194.858
0.493,42.923,6.608,6.695,235.229,176.028,194.864
0.494,43.040,6.641,6.704,235.333,175.977,194.873
0.495,43.142,6.669,6.712,235.426,175.936,194.884
0.496,43.231,6.690,6.720,235.510,175.905,194.895
