"T","Distance","Radius","FreeRadius","X","Y","Z"
0.000,0.000,2.453,2.453,212.171,187.057,179.272
0.001,0.097,2.487,2.487,212.168,187.126,179.339
0.002,0.193,2.521,2.521,212.166,187.195,179.407
0.004,0.288,2.555,2.555,212.164,187.263,179.474
0.005,0.382,2.588,2.588,212.164,187.329,179.541
0.006,0.474,2.622,2.622,212.164,187.392,179.607
0.007,0.564,2.655,2.655,212.166,187.453,179.674
0.009,0.651,2.688,2.688,212.170,187.510,179.740
0.010,0.736,2.720,2.720,212.176,187.562,179.805
0.011,0.817,2.752,2.752,212.185,187.610,179.870
0.012,0.895,2.784,2.784,212.197,187.653,179.935
0.014,0.970,2.816,2.816,212.211,187.690,179.998
0.015,1.043,2.849,2.849,212.230,187.720,180.062
0.016,1.113,2.881,2.881,212.251,187.744,180.125
0.017,1.183,2.915,2.915,212.275,187.761,180.188
0.019,1.253,2.950,2.950,212.301,187.772,180.252
0.020,1.324,2.985,2.985,212.329,187.777,180.317
0.021,1.398,3.023,3.023,212.358,187.776,180.384
0.022,1.473,3.062,3.062,212.389,187.768,180.453
0.024,1.552,3.103,3.103,212.420,187.755,180.524
0.025,1.635,3.146,3.146,212.452,187.735,180.599
0.026,1.723,3.192,3.192,212.483,187.710,180.676
0.027,1.816,3.240,3.240,212.514,187.678,180.758
0.029,1.914,3.292,3.292,212.545,187.641,180.843
0.030,2.017,3.346,3.346,212.577,187.600,180.932
0.031,2.123,3.405,3.405,212.610,187.555,181.022
0.032,2.232,3.465,3.465,212.646,187.508,181.113
0.033,2.342,3.526,3.526,212.687,187.461,181.205
0.035,2.454,3.586,3.586,212.732,187.413,181.295
0.036,2.566,3.642,3.642,212.785,187.367,181.383
0.037,2.678,3.693,3.693,212.845,187.324,181.468
0.038,2.791,3.736,3.736,212.914,187.285,181.548
0.040,2.906,3.770,3.770,212.993,187.251,181.624
0.041,3.023,3.793,3.793,213.084,187.224,181.693
0.042,3.144,3.804,3.804,213.185,187.203,181.755
0.043,3.269,3.805,3.805,213.296,187.189,181.811
0.045,3.397,3.800,3.800,213.413,187.181,181.861
0.046,3.526,3.790,3.790,213.535,187.179,181.905
0.047,3.655,3.777,3.777,213.658,187.183,181.944
0.048,3.783,3.765,3.765,213.781,187.191,181.977
0.050,3.908,3.755,3.755,213.902,187.203,182.006
0.051,4.027,3.749,3.749,214.017,187.220,182.031
0.052,4.138,3.750,3.750,214.124,187.240,182.053
0.053,4.239,3.755,3.755,214.222,187.263,182.070
0.055,4.329,3.764,3.764,214.307,187.288,182.085
0.056,4.408,3.774,3.774,214.379,187.316,182.097
0.057,4.477,3.786,3.786,214.442,187.344,182.107
0.058,4.539,3.796,3.796,214.497,187.371,182.115
0.059,4.596,3.805,3.805,214.548,187.395,182.121
0.061,4.651,3.811,3.811,214.598,187.416,182.127
0.062,4.705,3.813,3.813,214.649,187.432,182.132
0.063,4.761,3.812,3.812,214.704,187.441,182.137
0.064,4.824,3.811,3.811,214.767,187.443,182.142
0.066,4.897,3.811,3.811,214.839,187.435,182.148
0.067,4.984,3.815,3.815,214.924,187.417,182.156
0.068,5.089,3.824,3.824,215.025,187.386,182.165
0.069,5.213,3.840,3.840,215.141,187.344,182.175
0.071,5.353,3.865,3.865,215.270,187.292,182.188
0.072,5.505,3.900,3.900,215.410,187.234,182.202
0.073,5.667,3.944,3.944,215.557,187.170,182.218
0.074,5.833,3.995,3.995,215.709,187.104,182.236
0.076,6.003,4.049,4.049,215.864,187.037,182.256
0.077,6.171,4.106,4.106,216.017,186.972,182.278
0.078,6.335,4.162,4.162,216.168,186.912,182.301
0.079,6.491,4.215,4.215,216.312,186.857,182.326
0.081,6.637,4.263,4.263,216.448,186.812,182.353
0.082,6.769,4.304,4.304,216.572,186.777,182.382
0.083,6.887,4.338,4.338,216.685,186.754,182.412
0.084,6.994,4.364,4.364,216.785,186.741,182.443
0.086,7.089,4.385,4.385,216.875,186.736,182.474
0.087,7.174,4.400,4.400,216.954,186.738,182.504
0.088,7.250,4.410,4.410,217.024,186.746,182.534
0.089,7.318,4.416,4.416,217.086,186.758,182.561
0.090,7.379,4.419,4.419,217.138,186.773,182.587
0.092,7.432,4.419,4.419,217.184,186.790,182.609
0.093,7.479,4.417,4.417,217.222,186.807,182.628
0.094,7.517,4.413,4.413,217.255,186.824,182.642
0.095,7.549,4.409,4.409,217.282,186.838,182.652
0.097,7.574,4.405,4.405,217.304,186.849,182.657
0.098,7.594,4.402,4.402,217.322,186.857,182.660
0.099,7.610,4.400,4.400,217.336,186.862,182.660
0.100,7.623,4.399,4.399,217.349,186.865,182.660
0.102,7.634,4.402,4.402,217.359,186.865,182.661
0.103,7.644,4.407,4.407,217.369,186.862,182.663
0.104,7.656,4.414,4.414,217.379,186.857,182.669
0.105,7.672,4.421,4.421,217.389,186.849,182.678
0.107,7.693,4.429,4.429,217.400,186.839,182.693
0.108,7.722,4.436,4.436,217.414,186.826,182.714
0.109,7.759,4.441,4.441,217.430,186.810,182.744
0.110,7.803,4.444,4.444,217.449,186.793,182.780
0.112,7.854,4.444,4.444,217.471,186.773,182.821
0.113,7.910,4.440,4.440,217.495,186.752,182.867
0.114,7.969,4.433,4.433,217.521,186.730,182.915
0.115,8.029,4.424,4.424,217.548,186.707,182.963
0.116,8.090,4.414,4.414,217.577,186.683,183.011
0.118,8.149,4.403,4.403,217.607,186.660,183.057
0.119,8.206,4.392,4.392,217.637,186.637,183.100
0.120,8.259,4.381,4.381,217.668,186.614,183.137
0.121,8.308,4.372,4.372,217.698,186.592,183.167
0.123,8.350,4.365,4.365,217.729,186.572,183.189
0.124,8.389,4.359,4.359,217.759,186.553,183.204
0.125,8.426,4.355,4.355,217.790,186.535,183.212
0.126,8.462,4.351,4.351,217.822,186.519,183.214
0.128,8.499,4.347,4.347,217.856,186.503,183.211
0.129,8.539,4.343,4.343,217.892,186.488,183.205
0.130,8.581,4.339,4.339,217.930,186.473,183.195
0.131,8.626,4.334,4.334,217.971,186.459,183.183
0.133,8.675,4.327,4.327,218.016,186.446,183.170
0.134,8.727,4.319,4.319,218.065,186.432,183.157
0.135,8.784,4.311,4.311,218.119,186.419,183.144
0.136,8.845,4.302,4.302,218.177,186.406,183.133
0.138,8.909,4.293,4.293,218.240,186.392,183.124
0.139,8.976,4.285,4.285,218.305,186.379,183.118
0.140,9.044,4.277,4.277,218.371,186.366,183.113
0.141,9.111,4.270,4.270,218.437,186.353,183.111
0.143,9.178,4.265,4.265,218.502,186.340,183.113
0.144,9.242,4.260,4.260,218.565,186.327,183.117
0.145,9.302,4.255,4.254,218.623,186.315,183.125
0.146,9.358,4.248,4.246,218.677,186.302,183.137
0.147,9.409,4.237,4.235,218.724,186.290,183.153
0.149,9.455,4.222,4.220,218.764,186.278,183.173
0.150,9.497,4.201,4.200,218.795,186.266,183.198
0.151,9.540,4.174,4.174,218.825,186.253,183.226
0.152,9.589,4.139,4.140,218.858,186.236,183.259
0.154,9.649,4.099,4.102,218.900,186.215,183.294
0.155,9.724,4.059,4.064,218.959,186.187,183.332
0.156,9.821,4.025,4.030,219.040,186.151,183.372
0.157,9.947,4.001,4.007,219.149,186.105,183.414
0.159,10.107,3.992,3.997,219.292,186.048,183.457
0.160,10.309,4.002,4.007,219.477,185.977,183.502
0.161,10.560,4.038,4.040,219.707,185.891,183.546
0.162,10.864,4.104,4.101,219.991,185.789,183.590
0.164,11.226,4.197,4.189,220.330,185.670,183.634
0.165,11.634,4.312,4.298,220.713,185.537,183.677
0.166,12.075,4.441,4.422,221.129,185.395,183.718
0.167,12.538,4.579,4.556,221.565,185.246,183.758
0.169,13.010,4.717,4.695,222.011,185.094,183.795
0.170,13.478,4.849,4.832,222.453,184.944,183.830
0.171,13.930,4.969,4.961,222.879,184.799,183.861
0.172,14.353,5.070,5.077,223.279,184.663,183.890
0.173,14.735,5.149,5.178,223.639,184.540,183.914
0.175,15.062,5.210,5.264,223.948,184.433,183.935
0.176,15.324,5.256,5.337,224.195,184.346,183.950
0.177,15.513,5.290,5.399,224.372,184.281,183.962
0.178,15.639,5.317,5.449,224.488,184.233,183.970
0.180,15.712,5.339,5.490,224.552,184.201,183.978
0.181,15.744,5.360,5.523,224.574,184.178,183.988
0.182,15.768,5.384,5.550,224.562,184.162,184.000
0.183,15.811,5.413,5.571,224.525,184.147,184.017
0.185,15.870,5.445,5.587,224.474,184.132,184.041
0.186,15.940,5.480,5.601,224.416,184.110,184.073
0.187,16.016,5.518,5.613,224.361,184.079,184.116
0.188,16.099,5.557,5.625,224.318,184.035,184.172
0.190,16.195,5.596,5.638,224.297,183.973,184.241
0.191,16.311,5.635,5.653,224.301,183.892,184.325
0.192,16.449,5.673,5.671,224.328,183.797,184.421
0.193,16.604,5.709,5.693,224.373,183.689,184.524
0.195,16.772,5.742,5.719,224.431,183.575,184.631
0.196,16.947,5.772,5.746,224.500,183.456,184.740
0.197,17.123,5.798,5.772,224.575,183.338,184.848
0.198,17.294,5.820,5.797,224.653,183.224,184.949
0.200,17.455,5.838,5.820,224.728,183.117,185.043
0.201,17.598,5.850,5.837,224.796,183.022,185.124
0.202,17.717,5.856,5.849,224.855,182.943,185.190
0.203,17.806,5.857,5.853,224.900,182.882,185.238
0.204,17.864,5.853,5.852,224.929,182.842,185.268
0.206,17.895,5.845,5.846,224.946,182.819,185.281
0.207,17.906,5.835,5.837,224.951,182.810,185.282
0.208,17.915,5.825,5.827,224.949,182.812,185.273
0.209,17.935,5.815,5.817,224.940,182.823,185.258
0.211,17.962,5.808,5.809,224.928,182.839,185.241
0.212,17.990,5.804,5.804,224.915,182.858,185.224
0.213,18.016,5.805,5.804,224.904,182.876,185.210
0.214,18.034,5.810,5.808,224.896,182.891,185.203
0.216,18.043,5.817,5.815,224.895,182.899,185.205
0.217,18.060,5.826,5.825,224.902,182.898,185.221
0.218,18.095,5.835,5.836,224.918,182.887,185.250
0.219,18.147,5.842,5.847,224.944,182.867,185.290
0.221,18.211,5.846,5.858,224.978,182.840,185.337
0.222,18.287,5.846,5.868,225.020,182.806,185.390
0.223,18.370,5.841,5.875,225.070,182.768,185.445
0.224,18.460,5.830,5.879,225.126,182.725,185.500
0.226,18.553,5.814,5.880,225.189,182.680,185.552
0.227,18.647,5.793,5.877,225.258,182.634,185.598
0.228,18.742,5.768,5.870,225.332,182.588,185.635
0.229,18.837,5.740,5.858,225.411,182.544,185.662
0.230,18.931,5.710,5.841,225.495,182.502,185.674
0.232,19.027,5.677,5.818,225.582,182.462,185.674
0.233,19.128,5.643,5.790,225.675,182.426,185.661
0.234,19.234,5.608,5.756,225.774,182.391,185.640
0.235,19.348,5.571,5.716,225.879,182.358,185.611
0.237,19.469,5.533,5.672,225.990,182.326,185.578
0.238,19.597,5.493,5.625,226.109,182.294,185.542
0.239,19.733,5.452,5.573,226.236,182.263,185.506
0.240,19.876,5.409,5.520,226.372,182.231,185.472
0.242,20.028,5.365,5.464,226.517,182.199,185.442
0.243,20.188,5.319,5.407,226.671,182.165,185.417
0.244,20.357,5.271,5.349,226.836,182.130,185.402
0.245,20.535,5.222,5.292,227.010,182.093,185.394
0.247,20.718,5.175,5.237,227.190,182.056,185.395
0.248,20.907,5.128,5.184,227.374,182.018,185.402
0.249,21.097,5.084,5.135,227.560,181.981,185.415
0.250,21.286,5.044,5.092,227.745,181.944,185.433
0.252,21.472,5.008,5.054,227.926,181.908,185.455
0.253,21.653,4.977,5.024,228.102,181.874,185.480
0.254,21.826,4.953,5.002,228.269,181.842,185.508
0.255,21.988,4.934,4.987,228.426,181.813,185.538
0.257,22.138,4.919,4.978,228.570,181.787,185.568
0.258,22.272,4.909,4.974,228.699,181.765,185.598
0.259,22.391,4.902,4.973,228.813,181.746,185.627
0.260,22.496,4.897,4.976,228.913,181.731,185.655
0.261,22.588,4.895,4.980,229.001,181.718,185.682
0.263,22.669,4.894,4.984,229.077,181.708,185.708
0.264,22.740,4.894,4.989,229.143,181.701,185.732
0.265,22.801,4.895,4.993,229.200,181.695,185.753
0.266,22.854,4.895,4.996,229.250,181.691,185.771
0.268,22.900,4.896,4.999,229.293,181.688,185.787
0.269,22.940,4.897,5.001,229.331,181.686,185.800
0.270,22.976,4.897,5.003,229.365,181.684,185.809
0.271,23.007,4.896,5.004,229.396,181.683,185.814
0.273,23.037,4.894,5.004,229.425,181.682,185.816
0.274,23.065,4.891,5.004,229.453,181.680,185.814
0.275,23.093,4.887,5.002,229.481,181.679,185.810
0.276,23.121,4.882,5.000,229.509,181.677,185.803
0.278,23.152,4.876,4.998,229.538,181.674,185.795
0.279,23.184,4.868,4.996,229.569,181.671,185.785
0.280,23.219,4.860,4.994,229.602,181.667,185.775
0.281,23.258,4.850,4.991,229.639,181.662,185.763
0.283,23.301,4.839,4.989,229.680,181.657,185.752
0.284,23.348,4.828,4.988,229.725,181.650,185.741
0.285,23.401,4.815,4.987,229.776,181.641,185.730
0.286,23.458,4.803,4.985,229.831,181.632,185.720
0.287,23.518,4.790,4.983,229.890,181.621,185.710
0.289,23.581,4.777,4.979,229.951,181.609,185.701
0.290,23.646,4.765,4.973,230.013,181.595,185.691
0.291,23.710,4.754,4.965,230.075,181.579,185.682
0.292,23.775,4.743,4.954,230.136,181.562,185.672
0.294,23.837,4.735,4.940,230.195,181.543,185.661
0.295,23.898,4.728,4.923,230.251,181.523,185.650
0.296,23.955,4.722,4.904,230.302,181.501,185.637
0.297,24.009,4.718,4.884,230.348,181.477,185.624
0.299,24.058,4.714,4.864,230.388,181.451,185.609
0.300,24.104,4.712,4.846,230.422,181.425,185.594
0.301,24.145,4.709,4.830,230.451,181.398,185.580
0.302,24.183,4.708,4.818,230.475,181.372,185.567
0.304,24.215,4.706,4.810,230.495,181.349,185.557
0.305,24.243,4.705,4.807,230.511,181.328,185.550
0.306,24.266,4.703,4.808,230.525,181.310,185.547
0.307,24.283,4.700,4.811,230.537,181.297,185.549
0.309,24.298,4.697,4.815,230.547,181.290,185.556
0.310,24.315,4.693,4.819,230.556,181.289,185.571
0.311,24.340,4.688,4.822,230.564,181.295,185.593
0.312,24.374,4.680,4.823,230.574,181.308,185.623
0.314,24.418,4.671,4.821,230.588,181.325,185.662
0.315,24.472,4.660,4.815,230.610,181.341,185.708
0.316,24.536,4.645,4.803,230.644,181.354,185.761
0.317,24.613,4.627,4.787,230.692,181.358,185.821
0.318,24.708,4.604,4.765,230.759,181.350,185.888
0.320,24.825,4.576,4.736,230.848,181.327,185.961
0.321,24.971,4.542,4.700,230.963,181.285,186.039
0.322,25.150,4.501,4.657,231.107,181.219,186.124
0.323,25.369,4.453,4.606,231.283,181.126,186.213
0.325,25.633,4.397,4.547,231.497,181.002,186.307
0.326,25.943,4.337,4.484,231.746,180.847,186.406
0.327,26.290,4.276,4.419,232.024,180.665,186.508
0.328,26.666,4.217,4.356,232.324,180.464,186.612
0.330,27.061,4.164,4.299,232.638,180.249,186.719
0.331,27.465,4.121,4.250,232.958,180.027,186.826
0.332,27.869,4.090,4.213,233.276,179.802,186.933
0.333,28.263,4.075,4.192,233.585,179.583,187.040
0.335,28.637,4.079,4.188,233.877,179.373,187.145
0.336,28.982,4.098,4.200,234.144,179.181,187.247
0.337,29.288,4.130,4.224,234.379,179.012,187.346
0.338,29.546,4.171,4.256,234.573,178.871,187.441
0.340,29.754,4.218,4.294,234.725,178.761,187.531
0.341,29.917,4.267,4.335,234.839,178.680,187.615
0.342,30.042,4.316,4.374,234.918,178.622,187.693
0.343,30.136,4.359,4.410,234.969,178.586,187.764
0.344,30.207,4.395,4.438,234.995,178.567,187.827
0.346,30.263,4.423,4.458,235.001,178.562,187.882
0.347,30.310,4.445,4.473,234.993,178.567,187.928
0.348,30.352,4.460,4.482,234.975,178.578,187.965
0.349,30.391,4.470,4.487,234.951,178.593,187.991
0.351,30.423,4.477,4.489,234.927,178.607,188.006
0.352,30.446,4.479,4.488,234.907,178.618,188.010
0.353,30.462,4.480,4.485,234.893,178.623,188.003
0.354,30.478,4.479,4.482,234.886,178.622,187.989
0.356,30.498,4.477,4.479,234.885,178.616,187.969
0.357,30.522,4.475,4.477,234.889,178.606,187.948
0.358,30.549,4.473,4.476,234.899,178.591,187.928
0.359,30.578,4.471,4.475,234.914,178.572,187.912
0.361,30.610,4.471,4.477,234.934,178.549,187.902
0.362,30.646,4.473,4.481,234.958,178.522,187.902
0.363,30.689,4.478,4.488,234.987,178.493,187.915
0.364,30.743,4.485,4.498,235.020,178.460,187.943
0.366,30.812,4.496,4.511,235.056,178.425,187.989
0.367,30.896,4.509,4.527,235.095,178.388,188.053
0.368,30.992,4.525,4.545,235.136,178.351,188.132
0.369,31.097,4.543,4.565,235.177,178.313,188.221
0.371,31.207,4.564,4.585,235.218,178.277,188.317
0.372,31.320,4.586,4.607,235.256,178.242,188.417
0.373,31.431,4.609,4.628,235.290,178.210,188.518
0.374,31.537,4.634,4.650,235.321,178.183,188.615
0.375,31.633,4.660,4.670,235.345,178.160,188.706
0.377,31.718,4.685,4.690,235.362,178.143,188.787
0.378,31.786,4.709,4.709,235.370,178.134,188.854
0.379,31.837,4.731,4.728,235.370,178.131,188.905
0.380,31.873,4.749,4.745,235.361,178.136,188.940
0.382,31.901,4.764,4.761,235.347,178.143,188.963
0.383,31.924,4.774,4.777,235.332,178.151,188.979
0.384,31.944,4.778,4.791,235.318,178.156,188.990
0.385,31.959,4.776,4.804,235.308,178.155,189.003
0.387,31.978,4.771,4.818,235.305,178.146,189.019
0.388,32.011,4.766,4.835,235.314,178.126,189.043
0.389,32.066,4.762,4.854,235.336,178.091,189.080
0.390,32.150,4.764,4.880,235.375,178.038,189.132
0.392,32.269,4.774,4.912,235.434,177.965,189.205
0.393,32.427,4.794,4.952,235.516,177.870,189.302
0.394,32.622,4.828,5.002,235.618,177.753,189.420
0.395,32.845,4.876,5.062,235.736,177.621,189.555
0.397,33.089,4.936,5.130,235.867,177.477,189.703
0.398,33.346,5.005,5.202,236.004,177.326,189.859
0.399,33.608,5.078,5.275,236.144,177.174,190.019
0.400,33.867,5.152,5.345,236.283,177.023,190.177
0.401,34.115,5.224,5.409,236.416,176.880,190.330
0.403,34.345,5.289,5.463,236.539,176.749,190.474
0.404,34.548,5.345,5.505,236.646,176.634,190.602
0.405,34.717,5.388,5.532,236.735,176.540,190.712
0.406,34.846,5.419,5.544,236.800,176.471,190.799
0.408,34.936,5.438,5.547,236.844,176.425,190.862
0.409,34.992,5.448,5.541,236.869,176.399,190.905
0.410,35.019,5.449,5.530,236.880,176.390,190.929
0.411,35.027,5.444,5.518,236.878,176.394,190.936
0.413,35.045,5.432,5.506,236.869,176.407,190.927
0.414,35.078,5.416,5.498,236.854,176.426,190.904
0.415,35.122,5.397,5.496,236.838,176.447,190.870
0.416,35.172,5.376,5.500,236.824,176.467,190.826
0.418,35.227,5.354,5.510,236.814,176.482,190.774
0.419,35.286,5.333,5.522,236.813,176.490,190.715
0.420,35.350,5.314,5.536,236.824,176.486,190.653
0.421,35.420,5.297,5.551,236.847,176.472,190.588
0.423,35.499,5.285,5.565,236.884,176.447,190.523
0.424,35.587,5.278,5.577,236.936,176.414,190.459
0.425,35.686,5.278,5.585,237.004,176.374,190.400
0.426,35.796,5.285,5.590,237.088,176.327,190.347
0.428,35.919,5.298,5.593,237.190,176.275,190.302
0.429,36.057,5.319,5.598,237.311,176.219,190.267
0.430,36.212,5.347,5.604,237.452,176.159,190.244
0.431,36.384,5.382,5.615,237.613,176.098,190.235
0.432,36.578,5.424,5.632,237.796,176.036,190.243
0.434,36.793,5.473,5.657,238.001,175.974,190.269
0.435,37.029,5.529,5.691,238.224,175.912,190.311
0.436,37.281,5.590,5.736,238.462,175.849,190.366
0.437,37.546,5.657,5.789,238.711,175.787,190.432
0.439,37.819,5.726,5.849,238.966,175.723,190.507
0.440,38.097,5.797,5.914,239.224,175.658,190.589
0.441,38.376,5.868,5.983,239.481,175.592,190.674
0.442,38.651,5.937,6.054,239.732,175.524,190.761
0.444,38.917,6.002,6.126,239.975,175.455,190.847
0.445,39.171,6.063,6.198,240.204,175.383,190.930
0.446,39.409,6.118,6.267,240.416,175.309,191.007
0.447,39.627,6.167,6.333,240.608,175.232,191.077
0.449,39.827,6.212,6.396,240.781,175.154,191.139
0.450,40.009,6.252,6.455,240.936,175.076,191.195
0.451,40.173,6.288,6.509,241.072,174.999,191.244
0.452,40.321,6.322,6.556,241.193,174.924,191.286
0.454,40.453,6.352,6.597,241.297,174.852,191.324
0.455,40.570,6.380,6.631,241.387,174.785,191.355
0.456,40.671,6.407,6.657,241.463,174.723,191.382
0.457,40.758,6.431,6.676,241.526,174.668,191.405
0.458,40.830,6.453,6.689,241.578,174.621,191.423
0.460,40.888,6.473,6.697,241.618,174.584,191.438
0.461,40.931,6.491,6.702,241.649,174.555,191.449
0.462,40.962,6.506,6.704,241.671,174.536,191.458
0.463,40.982,6.519,6.704,241.686,174.524,191.464
0.465,40.992,6.529,6.704,241.694,174.518,191.468
0.466,40.996,6.536,6.703,241.697,174.518,191.471
0.467,41.001,6.540,6.703,241.696,174.521,191.472
0.468,41.008,6.543,6.703,241.693,174.528,191.473
0.470,41.019,6.544,6.704,241.687,174.537,191.473
0.471,41.030,6.545,6.704,241.681,174.546,191.473
0.472,41.040,6.545,6.704,241.676,174.556,191.474
0.473,41.049,6.545,6.705,241.673,174.563,191.476
0.475,41.055,6.545,6.705,241.673,174.569,191.479
0.476,41.060,6.547,6.704,241.675,174.572,191.482
0.477,41.067,6.550,6.704,241.681,174.572,191.486
0.478,41.078,6.553,6.704,241.691,174.569,191.489
0.480,41.093,6.557,6.705,241.705,174.562,191.491
0.481,41.113,6.562,6.707,241.723,174.553,191.492
0.482,41.139,6.566,6.710,241.745,174.539,191.492
0.483,41.172,6.571,6.715,241.772,174.522,191.489
0.485,41.211,6.575,6.722,241.805,174.500,191.484
0.486,41.258,6.579,6.732,241.843,174.474,191.475
0.487,41.313,6.583,6.743,241.886,174.443,191.463
0.488,41.375,6.586,6.756,241.935,174.408,191.447
0.489,41.444,6.590,6.769,241.990,174.370,191.429
0.491,41.519,6.594,6.783,242.048,174.329,191.408
0.492,41.598,6.599,6.795,242.111,174.287,191.385
0.493,41.680,6.605,6.806,242.177,174.244,191.360
0.494,41.764,6.612,6.815,242.246,174.203,191.335
0.496,41.850,6.621,6.821,242.318,174.163,191.310
0.497,41.935,6.631,6.824,242.390,174.126,191.286
0.498,42.020,6.641,6.825,242.464,174.092,191.262
0.499,42.102,6.652,6.824,242.539,174.064,191.240
0.501,42.183,6.662,6.822,242.613,174.041,191.221
0.502,42.260,6.670,6.819,242.687,174.024,191.203
0.503,42.335,6.678,6.816,242.759,174.012,191.189
0.504,42.405,6.683,6.813,242.828,174.004,191.176
0.506,42.472,6.685,6.811,242.894,173.999,191.166
