"T","Distance","Radius","FreeRadius","X","Y","Z"
0.000,0.000,3.010,3.010,-170.016,22.259,-83.902
0.001,0.023,3.033,3.033,-170.023,22.281,-83.901
0.003,0.046,3.054,3.054,-170.029,22.302,-83.899
0.004,0.067,3.074,3.074,-170.035,22.323,-83.897
0.005,0.086,3.091,3.091,-170.040,22.341,-83.895
0.006,0.102,3.105,3.105,-170.045,22.356,-83.893
0.008,0.115,3.114,3.114,-170.049,22.368,-83.890
0.009,0.124,3.117,3.117,-170.052,22.376,-83.887
0.010,0.130,3.114,3.114,-170.054,22.379,-83.883
0.011,0.135,3.105,3.105,-170.055,22.377,-83.879
0.013,0.145,3.089,3.089,-170.055,22.369,-83.874
0.014,0.161,3.069,3.069,-170.053,22.353,-83.868
0.015,0.185,3.046,3.046,-170.049,22.331,-83.861
0.016,0.217,3.021,3.021,-170.043,22.300,-83.854
0.018,0.257,2.995,2.995,-170.036,22.261,-83.845
0.019,0.301,2.972,2.972,-170.027,22.219,-83.837
0.020,0.346,2.950,2.950,-170.018,22.176,-83.828
0.021,0.388,2.933,2.933,-170.008,22.136,-83.819
0.023,0.425,2.920,2.920,-169.998,22.102,-83.811
0.024,0.452,2.914,2.914,-169.989,22.076,-83.804
0.025,0.468,2.913,2.913,-169.982,22.064,-83.799
0.026,0.476,2.920,2.920,-169.976,22.067,-83.795
0.028,0.499,2.934,2.934,-169.972,22.089,-83.794
0.029,0.543,2.958,2.958,-169.970,22.134,-83.795
0.030,0.614,2.990,2.990,-169.972,22.205,-83.799
0.031,0.714,3.033,3.033,-169.978,22.304,-83.807
0.033,0.847,3.085,3.085,-169.988,22.436,-83.818
0.034,1.009,3.146,3.146,-170.002,22.598,-83.831
0.035,1.199,3.216,3.216,-170.021,22.785,-83.843
0.036,1.410,3.293,3.293,-170.044,22.995,-83.853
0.038,1.640,3.377,3.377,-170.074,23.224,-83.858
0.039,1.885,3.467,3.467,-170.109,23.466,-83.855
0.040,2.142,3.563,3.563,-170.150,23.719,-83.843
0.042,2.406,3.663,3.663,-170.197,23.978,-83.819
0.043,2.676,3.767,3.767,-170.252,24.239,-83.780
0.044,2.948,3.874,3.874,-170.313,24.499,-83.724
0.045,3.222,3.981,3.981,-170.381,24.753,-83.649
0.047,3.495,4.088,4.088,-170.457,24.997,-83.552
0.048,3.769,4.193,4.193,-170.540,25.228,-83.432
0.049,4.043,4.295,4.295,-170.632,25.442,-83.286
0.050,4.319,4.392,4.392,-170.729,25.639,-83.120
0.052,4.595,4.484,4.484,-170.831,25.821,-82.938
0.053,4.872,4.570,4.570,-170.936,25.986,-82.743
0.054,5.145,4.649,4.649,-171.042,26.137,-82.541
0.055,5.413,4.721,4.721,-171.148,26.272,-82.336
0.057,5.672,4.786,4.786,-171.251,26.393,-82.131
0.058,5.918,4.842,4.842,-171.350,26.499,-81.932
0.059,6.149,4.890,4.890,-171.443,26.592,-81.743
0.060,6.359,4.930,4.930,-171.530,26.672,-81.568
0.062,6.546,4.960,4.960,-171.607,26.738,-81.412
0.063,6.704,4.982,4.982,-171.673,26.792,-81.279
0.064,6.830,4.997,4.997,-171.727,26.834,-81.173
0.065,6.923,5.007,5.007,-171.768,26.865,-81.095
0.067,6.988,5.014,5.014,-171.797,26.887,-81.042
0.068,7.027,5.019,5.019,-171.816,26.900,-81.010
0.069,7.045,5.023,5.023,-171.824,26.906,-80.995
0.070,7.047,5.028,5.028,-171.823,26.908,-80.996
0.072,7.062,5.036,5.036,-171.813,26.906,-81.008
0.073,7.088,5.046,5.046,-171.796,26.902,-81.027
0.074,7.123,5.058,5.058,-171.773,26.897,-81.052
0.075,7.162,5.073,5.073,-171.744,26.893,-81.078
0.077,7.204,5.089,5.089,-171.710,26.892,-81.103
0.078,7.246,5.107,5.107,-171.673,26.895,-81.122
0.079,7.289,5.125,5.125,-171.632,26.903,-81.133
0.081,7.334,5.145,5.145,-171.589,26.918,-81.133
0.082,7.385,5.166,5.166,-171.544,26.940,-81.122
0.083,7.444,5.187,5.187,-171.497,26.969,-81.100
0.084,7.511,5.209,5.209,-171.449,27.003,-81.070
0.086,7.585,5.231,5.231,-171.398,27.042,-81.033
0.087,7.668,5.253,5.253,-171.345,27.087,-80.988
0.088,7.757,5.276,5.276,-171.291,27.137,-80.938
0.089,7.852,5.299,5.299,-171.234,27.190,-80.883
0.091,7.952,5.322,5.322,-171.176,27.248,-80.825
0.092,8.057,5.345,5.345,-171.115,27.308,-80.765
0.093,8.166,5.369,5.369,-171.053,27.372,-80.703
0.094,8.277,5.393,5.393,-170.989,27.438,-80.641
0.096,8.390,5.419,5.419,-170.922,27.506,-80.580
0.097,8.504,5.446,5.446,-170.855,27.576,-80.520
0.098,8.618,5.474,5.474,-170.786,27.647,-80.463
0.099,8.731,5.505,5.505,-170.717,27.718,-80.408
0.101,8.843,5.538,5.538,-170.648,27.789,-80.356
0.102,8.951,5.574,5.574,-170.581,27.859,-80.306
0.103,9.056,5.612,5.612,-170.516,27.927,-80.260
0.104,9.157,5.651,5.651,-170.453,27.992,-80.218
0.106,9.251,5.690,5.690,-170.394,28.055,-80.180
0.107,9.339,5.727,5.727,-170.339,28.115,-80.146
0.108,9.419,5.761,5.761,-170.289,28.170,-80.117
0.109,9.490,5.791,5.791,-170.244,28.220,-80.093
0.111,9.552,5.816,5.816,-170.206,28.265,-80.074
0.112,9.604,5.835,5.835,-170.174,28.304,-80.061
0.113,9.645,5.847,5.847,-170.150,28.336,-80.053
0.114,9.678,5.854,5.854,-170.132,28.363,-80.049
0.116,9.701,5.855,5.855,-170.119,28.383,-80.049
0.117,9.718,5.853,5.853,-170.112,28.398,-80.052
0.118,9.728,5.846,5.846,-170.110,28.406,-80.056
0.119,9.734,5.836,5.836,-170.112,28.409,-80.061
0.121,9.742,5.824,5.824,-170.117,28.407,-80.066
0.122,9.754,5.809,5.809,-170.125,28.399,-80.071
0.123,9.771,5.794,5.794,-170.136,28.386,-80.073
0.125,9.793,5.779,5.779,-170.148,28.367,-80.073
0.126,9.821,5.764,5.764,-170.162,28.344,-80.070
0.127,9.854,5.752,5.752,-170.177,28.315,-80.062
0.128,9.892,5.742,5.742,-170.192,28.283,-80.050
0.130,9.931,5.737,5.737,-170.206,28.250,-80.033
0.131,9.970,5.736,5.736,-170.220,28.221,-80.012
0.132,10.004,5.741,5.741,-170.232,28.200,-79.987
0.133,10.035,5.751,5.751,-170.241,28.192,-79.958
0.135,10.068,5.764,5.764,-170.248,28.201,-79.928
0.136,10.113,5.776,5.776,-170.251,28.231,-79.894
0.137,10.178,5.786,5.786,-170.251,28.286,-79.859
0.138,10.270,5.792,5.792,-170.246,28.370,-79.823
0.140,10.395,5.790,5.790,-170.235,28.489,-79.785
0.141,10.558,5.779,5.779,-170.219,28.646,-79.747
0.142,10.762,5.756,5.756,-170.196,28.846,-79.709
0.143,11.013,5.724,5.724,-170.167,29.092,-79.672
0.145,11.309,5.687,5.687,-170.130,29.383,-79.635
0.146,11.643,5.651,5.651,-170.088,29.713,-79.600
0.147,12.008,5.622,5.622,-170.041,30.074,-79.567
0.148,12.396,5.605,5.605,-169.989,30.457,-79.536
0.150,12.799,5.605,5.605,-169.935,30.855,-79.508
0.151,13.209,5.628,5.628,-169.879,31.260,-79.483
0.152,13.619,5.678,5.678,-169.822,31.666,-79.462
0.153,14.020,5.756,5.756,-169.765,32.063,-79.445
0.155,14.406,5.854,5.854,-169.709,32.444,-79.433
0.156,14.767,5.965,5.965,-169.655,32.801,-79.426
0.157,15.097,6.084,6.084,-169.603,33.127,-79.425
0.158,15.388,6.202,6.202,-169.556,33.415,-79.430
0.160,15.634,6.314,6.314,-169.514,33.656,-79.442
0.161,15.835,6.414,6.414,-169.477,33.853,-79.459
0.162,15.997,6.493,6.493,-169.444,34.010,-79.482
0.164,16.123,6.551,6.551,-169.416,34.131,-79.508
0.165,16.221,6.591,6.591,-169.393,34.220,-79.537
0.166,16.293,6.616,6.615,-169.373,34.283,-79.567
0.167,16.347,6.628,6.628,-169.356,34.324,-79.598
0.169,16.387,6.631,6.631,-169.344,34.346,-79.629
0.170,16.419,6.628,6.628,-169.334,34.355,-79.658
0.171,16.446,6.622,6.622,-169.327,34.355,-79.684
0.172,16.469,6.617,6.617,-169.323,34.351,-79.706
0.174,16.488,6.613,6.613,-169.321,34.346,-79.724
0.175,16.499,6.611,6.611,-169.322,34.346,-79.736
0.176,16.509,6.610,6.610,-169.324,34.353,-79.742
0.177,16.523,6.611,6.611,-169.328,34.367,-79.742
0.179,16.544,6.614,6.614,-169.333,34.386,-79.737
0.180,16.571,6.619,6.619,-169.340,34.411,-79.728
0.181,16.602,6.625,6.625,-169.347,34.439,-79.716
0.182,16.637,6.633,6.633,-169.355,34.470,-79.702
0.184,16.675,6.642,6.642,-169.364,34.504,-79.687
0.185,16.713,6.652,6.652,-169.373,34.538,-79.672
0.186,16.751,6.663,6.662,-169.382,34.572,-79.658
0.187,16.788,6.673,6.672,-169.391,34.605,-79.644
0.189,16.822,6.683,6.682,-169.399,34.636,-79.634
0.190,16.852,6.691,6.691,-169.407,34.664,-79.626
0.191,16.878,6.698,6.698,-169.414,34.688,-79.623
0.192,16.899,6.702,6.703,-169.420,34.708,-79.623
0.194,16.916,6.704,6.705,-169.425,34.724,-79.626
0.195,16.929,6.704,6.705,-169.430,34.736,-79.630
0.196,16.940,6.702,6.704,-169.436,34.745,-79.634
0.197,16.947,6.699,6.701,-169.441,34.749,-79.637
0.199,16.953,6.695,6.696,-169.446,34.750,-79.637
0.200,16.961,6.689,6.691,-169.453,34.748,-79.633
0.201,16.974,6.683,6.684,-169.460,34.742,-79.623
0.203,16.995,6.677,6.676,-169.469,34.733,-79.607
0.204,17.023,6.670,6.668,-169.479,34.722,-79.583
0.205,17.062,6.664,6.660,-169.490,34.707,-79.549
0.206,17.111,6.658,6.652,-169.504,34.690,-79.505
0.208,17.172,6.651,6.645,-169.520,34.671,-79.449
0.209,17.244,6.646,6.639,-169.538,34.650,-79.383
0.210,17.324,6.640,6.634,-169.560,34.631,-79.308
0.211,17.412,6.635,6.632,-169.585,34.615,-79.225
0.213,17.507,6.631,6.633,-169.614,34.604,-79.136
0.214,17.606,6.626,6.635,-169.648,34.599,-79.043
0.215,17.710,6.619,6.637,-169.686,34.602,-78.946
0.216,17.817,6.607,6.636,-169.729,34.616,-78.848
0.218,17.930,6.589,6.630,-169.778,34.642,-78.750
0.219,18.048,6.562,6.617,-169.833,34.682,-78.654
0.220,18.172,6.524,6.595,-169.894,34.737,-78.561
0.221,18.306,6.473,6.561,-169.962,34.810,-78.472
0.223,18.451,6.406,6.513,-170.038,34.902,-78.389
0.224,18.609,6.325,6.450,-170.120,35.014,-78.313
0.225,18.781,6.232,6.376,-170.209,35.143,-78.244
0.226,18.963,6.131,6.293,-170.302,35.286,-78.181
0.228,19.155,6.027,6.204,-170.399,35.442,-78.124
0.229,19.354,5.922,6.113,-170.498,35.607,-78.073
0.230,19.558,5.821,6.022,-170.598,35.778,-78.027
0.231,19.764,5.727,5.934,-170.698,35.954,-77.986
0.233,19.970,5.645,5.852,-170.797,36.132,-77.950
0.234,20.174,5.576,5.778,-170.893,36.308,-77.918
0.235,20.372,5.519,5.712,-170.985,36.481,-77.891
0.236,20.561,5.471,5.653,-171.072,36.648,-77.867
0.238,20.740,5.432,5.601,-171.153,36.806,-77.846
0.239,20.905,5.400,5.556,-171.227,36.953,-77.829
0.240,21.056,5.372,5.517,-171.293,37.087,-77.815
0.242,21.192,5.348,5.484,-171.351,37.210,-77.803
0.243,21.313,5.325,5.457,-171.403,37.319,-77.795
0.244,21.420,5.303,5.434,-171.447,37.417,-77.789
0.245,21.513,5.282,5.417,-171.485,37.501,-77.786
0.247,21.592,5.263,5.403,-171.517,37.573,-77.786
0.248,21.656,5.247,5.393,-171.543,37.631,-77.788
0.249,21.705,5.235,5.385,-171.563,37.677,-77.793
0.250,21.741,5.227,5.380,-171.578,37.709,-77.800
0.252,21.764,5.224,5.376,-171.588,37.727,-77.810
0.253,21.778,5.227,5.374,-171.593,37.732,-77.822
0.254,21.795,5.237,5.372,-171.593,37.723,-77.836
0.255,21.823,5.250,5.370,-171.589,37.701,-77.853
0.257,21.859,5.265,5.368,-171.582,37.670,-77.870
0.258,21.900,5.279,5.365,-171.574,37.634,-77.887
0.259,21.940,5.291,5.361,-171.565,37.598,-77.902
0.260,21.976,5.298,5.356,-171.556,37.566,-77.915
0.262,22.002,5.297,5.349,-171.550,37.542,-77.923
0.263,22.014,5.288,5.340,-171.547,37.530,-77.925
0.264,22.021,5.268,5.329,-171.548,37.536,-77.921
0.265,22.052,5.238,5.315,-171.554,37.563,-77.908
0.267,22.110,5.201,5.297,-171.568,37.616,-77.887
0.268,22.202,5.157,5.275,-171.589,37.699,-77.854
0.269,22.332,5.108,5.250,-171.620,37.817,-77.810
0.270,22.503,5.054,5.219,-171.661,37.973,-77.753
0.272,22.716,4.999,5.184,-171.713,38.168,-77.682
0.273,22.965,4.942,5.143,-171.772,38.395,-77.600
0.274,23.243,4.885,5.097,-171.838,38.649,-77.509
0.275,23.544,4.829,5.047,-171.908,38.924,-77.408
0.277,23.862,4.774,4.997,-171.981,39.214,-77.301
0.278,24.190,4.721,4.947,-172.054,39.514,-77.188
0.279,24.522,4.671,4.900,-172.125,39.817,-77.071
0.281,24.853,4.625,4.859,-172.193,40.117,-76.953
0.282,25.175,4.582,4.826,-172.255,40.410,-76.833
0.283,25.483,4.544,4.802,-172.309,40.689,-76.714
0.284,25.771,4.511,4.788,-172.355,40.948,-76.598
0.286,26.032,4.484,4.784,-172.388,41.182,-76.485
0.287,26.263,4.463,4.786,-172.409,41.385,-76.378
0.288,26.466,4.447,4.793,-172.417,41.560,-76.275
0.289,26.645,4.437,4.802,-172.416,41.709,-76.176
0.291,26.806,4.434,4.811,-172.405,41.837,-76.080
0.292,26.953,4.437,4.818,-172.388,41.948,-75.984
0.293,27.090,4.446,4.820,-172.366,42.044,-75.890
0.294,27.221,4.462,4.816,-172.341,42.131,-75.794
0.296,27.350,4.484,4.809,-172.315,42.211,-75.696
0.297,27.480,4.512,4.800,-172.290,42.288,-75.595
0.298,27.613,4.546,4.792,-172.267,42.367,-75.490
0.299,27.753,4.584,4.787,-172.248,42.450,-75.380
0.301,27.902,4.626,4.787,-172.235,42.542,-75.263
0.302,28.064,4.673,4.795,-172.230,42.647,-75.139
0.303,28.242,4.723,4.812,-172.234,42.766,-75.007
0.304,28.432,4.775,4.841,-172.246,42.896,-74.870
0.306,28.631,4.829,4.879,-172.266,43.036,-74.728
0.307,28.837,4.883,4.923,-172.293,43.181,-74.585
0.308,29.045,4.934,4.969,-172.326,43.329,-74.443
0.309,29.253,4.983,5.016,-172.364,43.478,-74.303
0.311,29.457,5.027,5.059,-172.407,43.624,-74.167
0.312,29.654,5.064,5.097,-172.454,43.765,-74.038
0.313,29.839,5.093,5.126,-172.504,43.897,-73.917
0.314,30.011,5.113,5.144,-172.557,44.018,-73.807
0.316,30.165,5.125,5.152,-172.611,44.124,-73.710
0.317,30.299,5.131,5.154,-172.667,44.214,-73.628
0.318,30.410,5.132,5.150,-172.722,44.284,-73.563
0.319,30.499,5.130,5.142,-172.778,44.334,-73.513
0.321,30.572,5.126,5.134,-172.833,44.368,-73.479
0.322,30.633,5.123,5.126,-172.887,44.386,-73.457
0.323,30.687,5.121,5.121,-172.939,44.391,-73.447
0.325,30.738,5.122,5.120,-172.990,44.386,-73.445
0.326,30.789,5.125,5.123,-173.039,44.373,-73.451
0.327,30.840,5.130,5.129,-173.085,44.353,-73.462
0.328,30.892,5.137,5.137,-173.128,44.330,-73.477
0.330,30.941,5.144,5.145,-173.169,44.306,-73.493
0.331,30.988,5.152,5.153,-173.205,44.282,-73.509
0.332,31.029,5.159,5.160,-173.238,44.262,-73.524
0.333,31.063,5.164,5.164,-173.267,44.247,-73.534
0.335,31.089,5.168,5.166,-173.291,44.239,-73.539
0.336,31.109,5.171,5.164,-173.311,44.239,-73.539
0.337,31.127,5.171,5.161,-173.327,44.246,-73.535
0.338,31.149,5.170,5.157,-173.340,44.261,-73.527
0.340,31.175,5.168,5.153,-173.351,44.283,-73.516
0.341,31.209,5.163,5.150,-173.361,44.312,-73.502
0.342,31.249,5.157,5.149,-173.369,44.348,-73.487
0.343,31.296,5.150,5.149,-173.376,44.391,-73.470
0.345,31.349,5.141,5.153,-173.383,44.441,-73.453
0.346,31.409,5.131,5.160,-173.390,44.498,-73.436
0.347,31.475,5.121,5.170,-173.399,44.561,-73.419
0.348,31.548,5.113,5.182,-173.408,44.631,-73.404
0.350,31.626,5.106,5.196,-173.421,44.708,-73.391
0.351,31.711,5.103,5.211,-173.435,44.791,-73.380
0.352,31.803,5.103,5.228,-173.454,44.880,-73.368
0.353,31.901,5.108,5.246,-173.476,44.974,-73.353
0.355,32.005,5.118,5.264,-173.503,45.073,-73.333
0.356,32.117,5.132,5.281,-173.536,45.176,-73.306
0.357,32.237,5.146,5.294,-173.576,45.284,-73.269
0.358,32.367,5.157,5.304,-173.622,45.395,-73.221
0.360,32.507,5.163,5.306,-173.676,45.509,-73.159
0.361,32.660,5.160,5.300,-173.739,45.625,-73.082
0.362,32.829,5.147,5.284,-173.810,45.744,-72.986
0.364,33.014,5.120,5.255,-173.892,45.864,-72.870
0.365,33.220,5.078,5.213,-173.985,45.985,-72.732
0.366,33.448,5.023,5.160,-174.088,46.107,-72.570
0.367,33.697,4.959,5.100,-174.202,46.229,-72.385
0.369,33.962,4.891,5.035,-174.323,46.350,-72.183
0.370,34.239,4.822,4.970,-174.450,46.468,-71.967
0.371,34.524,4.759,4.906,-174.581,46.585,-71.742
0.372,34.813,4.704,4.849,-174.713,46.697,-71.511
0.374,35.100,4.662,4.802,-174.844,46.805,-71.280
0.375,35.382,4.636,4.766,-174.973,46.907,-71.051
0.376,35.653,4.626,4.742,-175.097,47.003,-70.830
0.377,35.909,4.628,4.727,-175.214,47.092,-70.620
0.379,36.146,4.640,4.720,-175.322,47.172,-70.425
0.380,36.358,4.659,4.719,-175.419,47.244,-70.250
0.381,36.541,4.681,4.721,-175.502,47.305,-70.099
0.382,36.692,4.705,4.726,-175.571,47.356,-69.975
0.384,36.814,4.727,4.730,-175.627,47.398,-69.875
0.385,36.910,4.746,4.732,-175.672,47.430,-69.797
0.386,36.983,4.759,4.733,-175.708,47.456,-69.739
0.387,37.036,4.768,4.734,-175.736,47.475,-69.698
0.389,37.073,4.774,4.734,-175.759,47.488,-69.672
0.390,37.098,4.776,4.736,-175.777,47.497,-69.658
0.391,37.116,4.774,4.741,-175.794,47.503,-69.654
0.392,37.134,4.770,4.748,-175.811,47.507,-69.657
0.394,37.154,4.764,4.760,-175.829,47.509,-69.665
0.395,37.178,4.755,4.776,-175.851,47.510,-69.675
0.396,37.208,4.745,4.796,-175.879,47.513,-69.685
0.397,37.243,4.733,4.818,-175.914,47.517,-69.693
0.399,37.288,4.719,4.840,-175.957,47.523,-69.697
0.400,37.342,4.704,4.859,-176.011,47.532,-69.696
0.401,37.410,4.687,4.875,-176.077,47.543,-69.689
0.403,37.491,4.669,4.885,-176.157,47.556,-69.677
0.404,37.589,4.650,4.886,-176.251,47.572,-69.658
0.405,37.704,4.630,4.879,-176.362,47.589,-69.633
0.406,37.839,4.612,4.864,-176.491,47.609,-69.599
0.408,37.995,4.598,4.847,-176.640,47.631,-69.557
0.409,38.173,4.592,4.832,-176.809,47.656,-69.507
0.410,38.376,4.596,4.823,-177.001,47.683,-69.447
0.411,38.605,4.614,4.824,-177.217,47.712,-69.376
0.413,38.862,4.649,4.840,-177.459,47.743,-69.295
0.414,39.147,4.704,4.874,-177.727,47.776,-69.203
0.415,39.457,4.780,4.932,-178.017,47.811,-69.102
0.416,39.784,4.876,5.010,-178.324,47.848,-68.994
0.418,40.123,4.984,5.104,-178.641,47.885,-68.880
0.419,40.468,5.100,5.211,-178.964,47.921,-68.764
0.420,40.813,5.217,5.326,-179.287,47.958,-68.647
0.421,41.152,5.330,5.444,-179.604,47.993,-68.532
0.423,41.479,5.431,5.560,-179.909,48.026,-68.420
0.424,41.788,5.517,5.671,-180.197,48.057,-68.315
0.425,42.072,5.580,5.773,-180.463,48.086,-68.218
0.426,42.326,5.622,5.863,-180.700,48.110,-68.131
0.428,42.544,5.648,5.942,-180.904,48.131,-68.056
0.429,42.719,5.662,6.010,-181.068,48.147,-67.997
0.430,42.850,5.667,6.067,-181.191,48.159,-67.952
0.431,42.940,5.669,6.113,-181.275,48.166,-67.922
0.433,42.995,5.672,6.148,-181.326,48.169,-67.903
0.434,43.019,5.679,6.172,-181.348,48.168,-67.893
0.435,43.024,5.696,6.186,-181.346,48.165,-67.890
0.436,43.048,5.721,6.189,-181.323,48.159,-67.893
0.438,43.088,5.753,6.185,-181.284,48.151,-67.898
0.439,43.140,5.788,6.173,-181.234,48.142,-67.904
0.440,43.198,5.825,6.156,-181.176,48.132,-67.909
0.442,43.260,5.860,6.136,-181.116,48.121,-67.911
0.443,43.320,5.892,6.114,-181.057,48.110,-67.907
0.444,43.375,5.917,6.091,-181.004,48.100,-67.895
0.445,43.424,5.933,6.068,-180.961,48.090,-67.874
0.447,43.469,5.940,6.048,-180.929,48.082,-67.843
0.448,43.514,5.939,6.028,-180.906,48.075,-67.805
0.449,43.560,5.933,6.010,-180.893,48.069,-67.761
0.450,43.609,5.921,5.993,-180.886,48.064,-67.712
0.452,43.661,5.907,5.978,-180.886,48.061,-67.661
0.453,43.713,5.890,5.964,-180.890,48.058,-67.610
0.454,43.765,5.872,5.951,-180.899,48.057,-67.558
0.455,43.814,5.855,5.939,-180.910,48.057,-67.510
0.457,43.860,5.840,5.928,-180.922,48.058,-67.466
0.458,43.901,5.826,5.919,-180.934,48.060,-67.427
0.459,43.934,5.814,5.910,-180.945,48.064,-67.396
0.460,43.957,5.804,5.902,-180.953,48.068,-67.375
0.462,43.971,5.797,5.895,-180.958,48.074,-67.363
0.463,43.979,5.792,5.889,-180.961,48.081,-67.360
0.464,43.986,5.791,5.884,-180.961,48.088,-67.362
0.465,43.994,5.792,5.879,-180.959,48.094,-67.365
0.467,44.001,5.796,5.875,-180.956,48.100,-67.368
0.468,44.007,5.800,5.869,-180.952,48.105,-67.368
0.469,44.016,5.803,5.860,-180.948,48.109,-67.361
0.470,44.033,5.803,5.849,-180.945,48.110,-67.344
0.472,44.062,5.799,5.833,-180.942,48.109,-67.316
0.473,44.106,5.789,5.811,-180.942,48.105,-67.272
0.474,44.168,5.771,5.782,-180.943,48.097,-67.210
0.475,44.252,5.743,5.746,-180.947,48.086,-67.127
0.477,44.359,5.707,5.703,-180.954,48.070,-67.021
0.478,44.491,5.663,5.654,-180.965,48.050,-66.891
0.479,44.643,5.613,5.601,-180.979,48.027,-66.742
0.481,44.811,5.559,5.547,-180.995,48.000,-66.577
0.482,44.991,5.504,5.492,-181.012,47.972,-66.400
0.483,45.179,5.448,5.440,-181.031,47.942,-66.215
0.484,45.371,5.394,5.390,-181.051,47.912,-66.026
0.486,45.563,5.342,5.347,-181.071,47.882,-65.838
0.487,45.750,5.295,5.309,-181.091,47.853,-65.654
0.488,45.929,5.253,5.277,-181.110,47.826,-65.478
0.489,46.096,5.214,5.249,-181.127,47.801,-65.315
0.491,46.245,5.181,5.226,-181.143,47.779,-65.167
0.492,46.375,5.152,5.207,-181.157,47.761,-65.040
0.493,46.480,5.128,5.191,-181.167,47.748,-64.936
0.494,46.561,5.109,5.177,-181.175,47.739,-64.856
0.496,46.621,5.096,5.166,-181.180,47.734,-64.797
0.497,46.661,5.088,5.157,-181.182,47.731,-64.757
0.498,46.684,5.084,5.150,-181.182,47.731,-64.734
0.499,46.691,5.085,5.145,-181.180,47.732,-64.726
0.501,46.699,5.089,5.142,-181.176,47.734,-64.732
0.502,46.717,5.097,5.142,-181.170,47.735,-64.749
0.503,46.744,5.107,5.144,-181.162,47.736,-64.775
0.504,46.778,5.119,5.149,-181.153,47.736,-64.808
0.506,46.818,5.134,5.157,-181.142,47.733,-64.846
0.507,46.861,5.149,5.167,-181.130,47.727,-64.887
0.508,46.907,5.165,5.179,-181.116,47.718,-64.930
0.509,46.952,5.181,5.191,-181.102,47.705,-64.971
0.511,46.997,5.196,5.204,-181.088,47.689,-65.010
0.512,47.038,5.210,5.217,-181.075,47.673,-65.046
0.513,47.075,5.223,5.229,-181.062,47.656,-65.076
