"T","Distance","Radius","FreeRadius","X","Y","Z"
0.000,0.000,3.011,3.011,-23.052,116.428,161.441
0.001,0.127,3.069,3.069,-22.969,116.503,161.502
0.003,0.255,3.127,3.127,-22.888,116.580,161.564
0.004,0.385,3.187,3.187,-22.810,116.660,161.629
0.006,0.517,3.250,3.250,-22.735,116.746,161.697
0.007,0.654,3.316,3.316,-22.666,116.840,161.769
0.009,0.798,3.386,3.386,-22.603,116.943,161.847
0.010,0.950,3.460,3.460,-22.549,117.058,161.932
0.011,1.115,3.541,3.541,-22.503,117.185,162.024
0.013,1.293,3.626,3.626,-22.468,117.328,162.126
0.014,1.489,3.715,3.715,-22.445,117.488,162.238
0.016,1.706,3.806,3.806,-22.435,117.666,162.360
0.017,1.939,3.898,3.898,-22.436,117.859,162.491
0.018,2.183,3.990,3.990,-22.446,118.062,162.627
0.020,2.432,4.080,4.080,-22.462,118.270,162.763
0.021,2.680,4.167,4.167,-22.483,118.478,162.896
0.023,2.920,4.251,4.251,-22.504,118.681,163.023
0.024,3.146,4.331,4.331,-22.524,118.873,163.138
0.026,3.351,4.406,4.406,-22.541,119.051,163.240
0.027,3.529,4.476,4.476,-22.551,119.208,163.322
0.028,3.674,4.541,4.541,-22.552,119.339,163.383
0.030,3.781,4.599,4.599,-22.541,119.441,163.418
0.031,3.857,4.651,4.651,-22.519,119.512,163.429
0.033,3.913,4.696,4.696,-22.487,119.557,163.418
0.034,3.969,4.735,4.735,-22.445,119.579,163.390
0.036,4.033,4.768,4.768,-22.394,119.584,163.349
0.037,4.110,4.796,4.796,-22.337,119.574,163.300
0.038,4.196,4.818,4.818,-22.273,119.554,163.245
0.040,4.287,4.835,4.835,-22.205,119.528,163.190
0.041,4.380,4.847,4.847,-22.134,119.499,163.138
0.043,4.471,4.855,4.855,-22.059,119.472,163.094
0.044,4.556,4.861,4.861,-21.984,119.451,163.061
0.045,4.635,4.866,4.866,-21.908,119.437,163.041
0.047,4.711,4.871,4.871,-21.833,119.430,163.034
0.048,4.785,4.879,4.879,-21.759,119.429,163.037
0.050,4.858,4.890,4.890,-21.687,119.432,163.049
0.051,4.931,4.906,4.906,-21.618,119.439,163.069
0.053,5.002,4.927,4.927,-21.552,119.448,163.096
0.054,5.073,4.952,4.952,-21.490,119.458,163.127
0.055,5.141,4.980,4.980,-21.433,119.469,163.163
0.057,5.205,5.009,5.009,-21.382,119.479,163.201
0.058,5.265,5.038,5.038,-21.337,119.488,163.240
0.060,5.320,5.065,5.065,-21.299,119.494,163.278
0.061,5.367,5.090,5.090,-21.268,119.497,163.314
0.063,5.408,5.111,5.111,-21.243,119.499,163.346
0.064,5.440,5.126,5.126,-21.224,119.499,163.372
0.065,5.461,5.135,5.135,-21.211,119.498,163.389
0.067,5.472,5.136,5.136,-21.204,119.497,163.397
0.068,5.477,5.128,5.128,-21.202,119.494,163.392
0.070,5.496,5.109,5.109,-21.206,119.492,163.374
0.071,5.531,5.078,5.078,-21.214,119.490,163.340
0.072,5.584,5.035,5.035,-21.228,119.488,163.289
0.074,5.656,4.984,4.984,-21.245,119.487,163.219
0.075,5.737,4.928,4.928,-21.263,119.489,163.140
0.077,5.818,4.871,4.871,-21.278,119.492,163.061
0.078,5.889,4.816,4.816,-21.286,119.500,162.991
0.080,5.941,4.767,4.767,-21.283,119.512,162.940
0.081,5.974,4.729,4.729,-21.266,119.529,162.917
0.082,6.020,4.702,4.702,-21.230,119.553,162.933
0.084,6.112,4.687,4.687,-21.172,119.584,162.998
0.085,6.266,4.679,4.679,-21.088,119.624,163.120
0.087,6.493,4.679,4.679,-20.974,119.672,163.310
0.088,6.801,4.682,4.682,-20.827,119.731,163.575
0.089,7.184,4.688,4.688,-20.650,119.798,163.908
0.091,7.624,4.694,4.694,-20.451,119.873,164.292
0.092,8.105,4.698,4.698,-20.235,119.954,164.714
0.094,8.610,4.700,4.700,-20.009,120.040,165.158
0.095,9.124,4.697,4.697,-19.780,120.130,165.609
0.097,9.629,4.690,4.690,-19.553,120.221,166.052
0.098,10.110,4.679,4.679,-19.337,120.313,166.471
0.099,10.549,4.661,4.661,-19.137,120.403,166.851
0.101,10.931,4.636,4.636,-18.959,120.492,167.177
0.102,11.240,4.605,4.605,-18.811,120.576,167.435
0.104,11.477,4.570,4.570,-18.692,120.656,167.624
0.105,11.651,4.533,4.533,-18.600,120.732,167.750
0.107,11.774,4.500,4.500,-18.531,120.803,167.824
0.108,11.863,4.474,4.474,-18.482,120.870,167.855
0.109,11.934,4.457,4.457,-18.449,120.933,167.850
0.111,12.002,4.455,4.455,-18.429,120.991,167.820
0.112,12.075,4.469,4.469,-18.419,121.045,167.772
0.114,12.150,4.498,4.498,-18.414,121.095,167.716
0.115,12.222,4.537,4.537,-18.413,121.140,167.660
0.116,12.284,4.582,4.582,-18.410,121.181,167.614
0.118,12.334,4.629,4.629,-18.404,121.219,167.581
0.119,12.374,4.672,4.672,-18.396,121.253,167.561
0.121,12.409,4.708,4.708,-18.385,121.285,167.552
0.122,12.443,4.732,4.732,-18.370,121.315,167.552
0.124,12.478,4.744,4.744,-18.353,121.344,167.560
0.125,12.515,4.747,4.747,-18.332,121.373,167.573
0.126,12.557,4.743,4.743,-18.309,121.402,167.590
0.128,12.602,4.735,4.735,-18.283,121.433,167.610
0.129,12.650,4.725,4.725,-18.253,121.465,167.630
0.131,12.702,4.715,4.715,-18.221,121.501,167.650
0.132,12.757,4.709,4.709,-18.186,121.539,167.667
0.134,12.816,4.706,4.706,-18.147,121.582,167.682
0.135,12.879,4.707,4.707,-18.106,121.628,167.696
0.136,12.948,4.711,4.711,-18.060,121.677,167.709
0.138,13.021,4.718,4.718,-18.012,121.731,167.721
0.139,13.100,4.726,4.726,-17.959,121.789,167.733
0.141,13.184,4.736,4.736,-17.903,121.851,167.744
0.142,13.275,4.747,4.747,-17.843,121.917,167.757
0.143,13.371,4.758,4.758,-17.779,121.988,167.770
0.145,13.474,4.771,4.771,-17.711,122.063,167.784
0.146,13.584,4.785,4.785,-17.638,122.144,167.800
0.148,13.699,4.801,4.801,-17.561,122.227,167.818
0.149,13.818,4.820,4.820,-17.481,122.314,167.838
0.151,13.941,4.842,4.842,-17.397,122.401,167.860
0.152,14.067,4.867,4.867,-17.310,122.488,167.884
0.153,14.193,4.895,4.895,-17.221,122.574,167.912
0.155,14.320,4.926,4.926,-17.129,122.656,167.942
0.156,14.447,4.958,4.958,-17.036,122.735,167.975
0.158,14.573,4.991,4.991,-16.941,122.809,168.012
0.159,14.697,5.024,5.023,-16.844,122.876,168.052
0.161,14.819,5.055,5.054,-16.747,122.935,168.095
0.162,14.940,5.083,5.083,-16.648,122.988,168.142
0.163,15.061,5.110,5.110,-16.549,123.037,168.191
0.165,15.184,5.136,5.137,-16.447,123.083,168.240
0.166,15.308,5.163,5.165,-16.343,123.129,168.290
0.168,15.434,5.195,5.197,-16.237,123.178,168.339
0.169,15.564,5.232,5.234,-16.128,123.230,168.386
0.170,15.698,5.277,5.278,-16.016,123.288,168.430
0.172,15.837,5.332,5.332,-15.900,123.355,168.470
0.173,15.984,5.398,5.396,-15.780,123.431,168.505
0.175,16.139,5.473,5.469,-15.656,123.521,168.535
0.176,16.303,5.554,5.548,-15.529,123.622,168.558
0.178,16.473,5.639,5.631,-15.401,123.732,168.576
0.179,16.647,5.724,5.717,-15.273,123.848,168.589
0.180,16.821,5.807,5.802,-15.148,123.969,168.598
0.182,16.992,5.886,5.886,-15.028,124.090,168.601
0.183,17.157,5.958,5.966,-14.914,124.210,168.602
0.185,17.313,6.022,6.040,-14.808,124.326,168.598
0.186,17.458,6.079,6.108,-14.714,124.434,168.592
0.188,17.587,6.129,6.168,-14.632,124.533,168.583
0.189,17.697,6.172,6.220,-14.564,124.620,168.573
0.190,17.788,6.207,6.262,-14.511,124.693,168.560
0.192,17.861,6.236,6.294,-14.472,124.753,168.546
0.193,17.919,6.258,6.315,-14.444,124.802,168.532
0.195,17.964,6.273,6.325,-14.427,124.840,168.517
0.196,17.997,6.284,6.328,-14.417,124.869,168.502
0.197,18.022,6.290,6.324,-14.415,124.889,168.488
0.199,18.040,6.292,6.316,-14.417,124.902,168.475
0.200,18.054,6.293,6.306,-14.423,124.908,168.464
0.202,18.067,6.291,6.296,-14.430,124.909,168.454
0.203,18.077,6.289,6.288,-14.437,124.906,168.447
0.205,18.087,6.286,6.282,-14.443,124.899,168.443
0.206,18.097,6.283,6.278,-14.448,124.890,168.441
0.207,18.107,6.281,6.276,-14.450,124.881,168.440
0.209,18.115,6.279,6.275,-14.452,124.872,168.441
0.210,18.123,6.277,6.275,-14.452,124.866,168.443
0.212,18.127,6.277,6.277,-14.451,124.862,168.445
0.213,18.131,6.278,6.279,-14.448,124.863,168.448
0.214,18.138,6.281,6.282,-14.444,124.869,168.449
0.216,18.153,6.284,6.287,-14.439,124.883,168.450
0.217,18.176,6.289,6.292,-14.432,124.904,168.450
0.219,18.207,6.295,6.298,-14.424,124.935,168.447
0.220,18.247,6.302,6.304,-14.416,124.974,168.444
0.222,18.294,6.311,6.312,-14.406,125.019,168.439
0.223,18.344,6.320,6.320,-14.395,125.068,168.433
0.224,18.398,6.330,6.328,-14.384,125.120,168.426
0.226,18.452,6.340,6.337,-14.372,125.173,168.420
0.227,18.506,6.350,6.347,-14.360,125.225,168.413
0.229,18.557,6.359,6.356,-14.347,125.274,168.407
0.230,18.604,6.367,6.365,-14.334,125.319,168.402
0.232,18.645,6.374,6.373,-14.321,125.357,168.398
0.233,18.679,6.378,6.381,-14.308,125.388,168.395
0.234,18.707,6.380,6.388,-14.294,125.412,168.393
0.236,18.729,6.380,6.393,-14.280,125.430,168.392
0.237,18.749,6.377,6.395,-14.266,125.443,168.390
0.239,18.767,6.370,6.394,-14.251,125.454,168.386
0.240,18.787,6.361,6.389,-14.235,125.463,168.381
0.241,18.808,6.349,6.379,-14.217,125.471,168.372
0.243,18.833,6.333,6.364,-14.198,125.481,168.360
0.244,18.862,6.314,6.343,-14.178,125.494,168.344
0.246,18.897,6.294,6.320,-14.155,125.511,168.322
0.247,18.940,6.274,6.295,-14.130,125.533,168.295
0.249,18.991,6.256,6.272,-14.103,125.561,168.262
0.250,19.049,6.242,6.251,-14.073,125.594,168.226
0.251,19.112,6.232,6.236,-14.040,125.633,168.189
0.253,19.179,6.229,6.228,-14.004,125.676,168.151
0.254,19.250,6.233,6.229,-13.965,125.723,168.115
0.256,19.323,6.241,6.235,-13.923,125.773,168.083
0.257,19.399,6.250,6.243,-13.876,125.827,168.057
0.259,19.477,6.256,6.252,-13.826,125.883,168.037
0.260,19.557,6.257,6.258,-13.772,125.941,168.027
0.261,19.641,6.249,6.258,-13.713,126.001,168.028
0.263,19.729,6.229,6.249,-13.650,126.061,168.039
0.264,19.821,6.196,6.230,-13.585,126.122,168.060
0.266,19.914,6.153,6.203,-13.519,126.182,168.088
0.267,20.008,6.102,6.171,-13.453,126.241,168.120
0.268,20.100,6.049,6.136,-13.388,126.296,168.156
0.270,20.189,5.997,6.101,-13.327,126.349,168.191
0.271,20.270,5.949,6.070,-13.270,126.397,168.225
0.273,20.343,5.910,6.044,-13.219,126.439,168.255
0.274,20.405,5.882,6.026,-13.176,126.476,168.279
0.276,20.453,5.862,6.014,-13.141,126.505,168.295
0.277,20.488,5.848,6.003,-13.115,126.527,168.302
0.278,20.515,5.836,5.991,-13.095,126.546,168.303
0.280,20.542,5.823,5.974,-13.077,126.565,168.301
0.281,20.572,5.804,5.949,-13.057,126.588,168.301
0.283,20.612,5.778,5.912,-13.031,126.618,168.304
0.284,20.667,5.740,5.861,-12.996,126.660,168.316
0.286,20.745,5.692,5.797,-12.948,126.716,168.338
0.287,20.851,5.634,5.721,-12.883,126.791,168.376
0.288,20.992,5.568,5.638,-12.798,126.889,168.431
0.290,21.175,5.495,5.548,-12.688,127.013,168.509
0.291,21.403,5.418,5.455,-12.551,127.165,168.610
0.293,21.672,5.336,5.360,-12.390,127.341,168.733
0.294,21.971,5.253,5.267,-12.211,127.536,168.873
0.295,22.293,5.169,5.176,-12.018,127.744,169.026
0.297,22.629,5.086,5.090,-11.817,127.958,169.188
0.298,22.969,5.006,5.011,-11.613,128.173,169.355
0.300,23.305,4.932,4.941,-11.410,128.382,169.522
0.301,23.628,4.865,4.881,-11.214,128.580,169.685
0.303,23.929,4.807,4.833,-11.030,128.761,169.841
0.304,24.200,4.760,4.799,-10.863,128.919,169.985
0.305,24.433,4.725,4.778,-10.718,129.048,170.112
0.307,24.629,4.699,4.768,-10.594,129.151,170.225
0.308,24.795,4.683,4.767,-10.490,129.230,170.326
0.310,24.935,4.676,4.772,-10.403,129.292,170.418
0.311,25.057,4.677,4.782,-10.332,129.342,170.504
0.313,25.167,4.686,4.793,-10.274,129.383,170.587
0.314,25.269,4.700,4.804,-10.227,129.421,170.670
0.315,25.372,4.720,4.813,-10.189,129.460,170.757
0.317,25.480,4.741,4.819,-10.158,129.505,170.850
0.318,25.599,4.763,4.823,-10.132,129.562,170.952
0.320,25.737,4.782,4.823,-10.108,129.634,171.067
0.321,25.894,4.796,4.819,-10.085,129.723,171.194
0.322,26.070,4.803,4.810,-10.060,129.831,171.331
0.324,26.265,4.800,4.796,-10.032,129.956,171.478
0.325,26.476,4.788,4.777,-9.998,130.099,171.630
0.327,26.704,4.770,4.756,-9.956,130.259,171.787
0.328,26.948,4.750,4.737,-9.905,130.436,171.946
0.330,27.207,4.732,4.721,-9.842,130.630,172.105
0.331,27.481,4.719,4.713,-9.765,130.841,172.262
0.332,27.771,4.717,4.714,-9.672,131.070,172.414
0.334,28.077,4.727,4.728,-9.562,131.315,172.561
0.335,28.398,4.752,4.755,-9.434,131.574,172.699
0.337,28.728,4.790,4.794,-9.293,131.843,172.830
0.338,29.063,4.837,4.842,-9.143,132.117,172.952
0.339,29.395,4.893,4.897,-8.990,132.388,173.065
0.341,29.718,4.953,4.957,-8.836,132.653,173.168
0.342,30.025,5.017,5.019,-8.687,132.905,173.262
0.344,30.311,5.081,5.080,-8.547,133.139,173.346
0.345,30.567,5.143,5.140,-8.422,133.350,173.420
0.347,30.788,5.202,5.196,-8.314,133.532,173.483
0.348,30.966,5.255,5.248,-8.229,133.680,173.535
0.349,31.099,5.301,5.294,-8.169,133.791,173.576
0.351,31.191,5.339,5.332,-8.132,133.870,173.606
0.352,31.251,5.366,5.362,-8.113,133.922,173.629
0.354,31.286,5.382,5.383,-8.109,133.954,173.644
0.355,31.307,5.385,5.393,-8.115,133.972,173.653
0.357,31.324,5.378,5.395,-8.129,133.980,173.657
0.358,31.341,5.365,5.391,-8.145,133.986,173.659
0.359,31.360,5.349,5.386,-8.161,133.995,173.658
0.361,31.381,5.333,5.380,-8.173,134.014,173.657
0.362,31.415,5.322,5.377,-8.175,134.047,173.657
0.364,31.469,5.318,5.379,-8.167,134.100,173.658
0.365,31.542,5.324,5.389,-8.148,134.171,173.661
0.366,31.632,5.338,5.405,-8.120,134.256,173.666
0.368,31.732,5.359,5.426,-8.087,134.351,173.673
0.369,31.840,5.384,5.449,-8.049,134.452,173.680
0.371,31.951,5.412,5.475,-8.008,134.555,173.687
0.372,32.060,5.438,5.500,-7.968,134.656,173.695
0.374,32.164,5.463,5.522,-7.930,134.752,173.702
0.375,32.256,5.483,5.542,-7.897,134.838,173.709
0.376,32.334,5.499,5.558,-7.869,134.911,173.715
0.378,32.393,5.511,5.571,-7.850,134.966,173.720
0.379,32.435,5.520,5.581,-7.839,135.006,173.723
0.381,32.461,5.527,5.590,-7.833,135.032,173.726
0.382,32.478,5.532,5.596,-7.832,135.048,173.729
0.384,32.487,5.536,5.602,-7.833,135.057,173.732
0.385,32.492,5.540,5.606,-7.834,135.061,173.735
0.386,32.498,5.545,5.610,-7.835,135.064,173.739
0.388,32.505,5.549,5.614,-7.832,135.069,173.744
0.389,32.519,5.553,5.617,-7.825,135.079,173.751
0.391,32.543,5.558,5.620,-7.811,135.096,173.760
0.392,32.581,5.563,5.623,-7.788,135.124,173.771
0.393,32.632,5.568,5.626,-7.758,135.163,173.785
0.395,32.693,5.574,5.630,-7.722,135.210,173.799
0.396,32.760,5.579,5.634,-7.682,135.262,173.814
0.398,32.830,5.585,5.637,-7.641,135.316,173.829
0.399,32.899,5.589,5.641,-7.601,135.371,173.842
0.401,32.963,5.593,5.644,-7.564,135.423,173.853
0.402,33.020,5.595,5.647,-7.533,135.468,173.861
0.403,33.064,5.595,5.648,-7.509,135.506,173.864
0.405,33.094,5.593,5.649,-7.495,135.533,173.863
0.406,33.109,5.588,5.649,-7.493,135.545,173.856
0.408,33.125,5.582,5.648,-7.502,135.544,173.843
0.409,33.150,5.573,5.645,-7.519,135.534,173.828
0.411,33.178,5.564,5.639,-7.538,135.520,173.812
0.412,33.203,5.553,5.632,-7.553,135.507,173.798
0.413,33.217,5.542,5.621,-7.560,135.499,173.788
0.415,33.225,5.530,5.608,-7.554,135.503,173.785
0.416,33.257,5.519,5.593,-7.529,135.522,173.792
0.418,33.322,5.509,5.577,-7.481,135.562,173.810
0.419,33.429,5.502,5.563,-7.404,135.629,173.843
0.420,33.584,5.499,5.552,-7.293,135.726,173.892
0.422,33.792,5.500,5.547,-7.146,135.856,173.960
0.423,34.044,5.507,5.550,-6.969,136.014,174.043
0.425,34.330,5.522,5.561,-6.769,136.194,174.139
0.426,34.640,5.544,5.583,-6.552,136.389,174.245
0.428,34.964,5.571,5.612,-6.326,136.592,174.357
0.429,35.292,5.604,5.647,-6.098,136.798,174.472
0.430,35.614,5.640,5.687,-5.874,136.999,174.588
0.432,35.920,5.678,5.728,-5.663,137.190,174.700
0.433,36.200,5.716,5.770,-5.470,137.363,174.807
0.435,36.445,5.754,5.810,-5.303,137.512,174.906
0.436,36.645,5.790,5.847,-5.168,137.632,174.992
0.438,36.804,5.823,5.881,-5.063,137.725,175.067
0.439,36.926,5.853,5.911,-4.985,137.792,175.132
0.440,37.016,5.878,5.938,-4.931,137.839,175.187
0.442,37.081,5.899,5.962,-4.896,137.868,175.233
0.443,37.125,5.914,5.982,-4.877,137.882,175.271
0.445,37.157,5.923,5.999,-4.872,137.885,175.302
0.446,37.183,5.925,6.013,-4.875,137.880,175.327
0.447,37.206,5.922,6.024,-4.885,137.870,175.346
0.449,37.228,5.915,6.032,-4.897,137.860,175.361
0.450,37.246,5.905,6.039,-4.907,137.851,175.372
0.452,37.259,5.895,6.044,-4.915,137.845,175.382
0.453,37.270,5.886,6.048,-4.921,137.843,175.391
0.455,37.282,5.879,6.052,-4.922,137.843,175.402
0.456,37.298,5.876,6.055,-4.920,137.846,175.418
0.457,37.322,5.877,6.058,-4.913,137.853,175.439
0.459,37.355,5.881,6.062,-4.901,137.862,175.469
0.460,37.400,5.889,6.066,-4.883,137.874,175.509
0.462,37.459,5.900,6.070,-4.860,137.889,175.561
0.463,37.534,5.914,6.074,-4.830,137.908,175.627
0.464,37.627,5.932,6.079,-4.793,137.929,175.710
0.466,37.736,5.952,6.085,-4.750,137.952,175.807
0.467,37.859,5.974,6.090,-4.702,137.977,175.918
0.469,37.993,5.997,6.096,-4.650,138.003,176.038
0.470,38.134,6.019,6.101,-4.596,138.028,176.166
0.472,38.278,6.040,6.105,-4.540,138.053,176.297
0.473,38.423,6.058,6.108,-4.486,138.075,176.429
0.474,38.565,6.073,6.108,-4.433,138.094,176.559
0.476,38.701,6.082,6.106,-4.383,138.110,176.685
0.477,38.827,6.087,6.103,-4.338,138.121,176.802
0.479,38.941,6.089,6.099,-4.298,138.126,176.909
0.480,39.041,6.090,6.095,-4.266,138.125,177.004
0.482,39.132,6.090,6.093,-4.239,138.120,177.090
0.483,39.214,6.092,6.093,-4.217,138.113,177.169
0.484,39.292,6.097,6.097,-4.198,138.104,177.244
0.486,39.368,6.105,6.105,-4.183,138.096,177.319
0.487,39.445,6.118,6.117,-4.171,138.090,177.394
0.489,39.526,6.134,6.134,-4.159,138.087,177.474
0.490,39.613,6.153,6.154,-4.148,138.090,177.561
0.491,39.711,6.176,6.176,-4.136,138.099,177.657
0.493,39.822,6.201,6.201,-4.123,138.116,177.766
0.494,39.948,6.228,6.228,-4.108,138.142,177.889
0.496,40.088,6.257,6.256,-4.090,138.177,178.024
0.497,40.240,6.286,6.285,-4.070,138.217,178.168
0.499,40.400,6.317,6.315,-4.047,138.261,178.320
0.500,40.566,6.348,6.345,-4.021,138.309,178.477
0.501,40.734,6.378,6.376,-3.992,138.357,178.636
0.503,40.904,6.408,6.406,-3.959,138.405,178.795
0.504,41.071,6.437,6.436,-3.922,138.451,178.952
0.506,41.234,6.464,6.465,-3.881,138.493,179.104
0.507,41.390,6.490,6.494,-3.837,138.529,179.248
0.509,41.537,6.513,6.520,-3.787,138.558,179.384
0.510,41.674,6.534,6.545,-3.735,138.580,179.509
0.511,41.801,6.553,6.567,-3.681,138.597,179.623
0.513,41.918,6.569,6.586,-3.627,138.608,179.726
0.514,42.024,6.583,6.602,-3.573,138.614,179.817
0.516,42.118,6.595,6.613,-3.522,138.617,179.896
0.517,42.200,6.603,6.620,-3.475,138.616,179.962
0.518,42.267,6.609,6.624,-3.433,138.613,180.015
0.520,42.321,6.613,6.624,-3.397,138.608,180.055
0.521,42.359,6.616,6.623,-3.370,138.603,180.080
0.523,42.381,6.617,6.621,-3.351,138.597,180.091
0.524,42.393,6.616,6.618,-3.341,138.591,180.090
0.526,42.404,6.615,6.615,-3.338,138.586,180.080
0.527,42.419,6.613,6.613,-3.340,138.581,180.066
0.528,42.435,6.611,6.612,-3.345,138.578,180.052
0.530,42.448,6.610,6.613,-3.351,138.576,180.040
0.531,42.456,6.611,6.615,-3.357,138.576,180.035
0.533,42.463,6.613,6.619,-3.361,138.578,180.041
0.534,42.484,6.617,6.626,-3.362,138.583,180.061
0.536,42.523,6.625,6.635,-3.356,138.590,180.099
0.537,42.585,6.636,6.648,-3.344,138.600,180.159
0.538,42.670,6.648,6.662,-3.324,138.612,180.241
0.540,42.773,6.660,6.678,-3.298,138.626,180.339
0.541,42.888,6.670,6.695,-3.268,138.639,180.449
0.543,43.010,6.676,6.712,-3.236,138.650,180.567
0.544,43.135,6.676,6.728,-3.203,138.658,180.687
0.545,43.257,6.668,6.744,-3.171,138.662,180.804
0.547,43.371,6.652,6.758,-3.142,138.659,180.915
0.548,43.473,6.628,6.770,-3.117,138.648,181.013
0.550,43.559,6.600,6.779,-3.098,138.629,181.095
0.551,43.627,6.571,6.786,-3.086,138.599,181.155
0.553,43.683,6.542,6.789,-3.082,138.559,181.194
0.554,43.735,6.518,6.788,-3.078,138.513,181.217
0.555,43.785,6.500,6.783,-3.070,138.465,181.233
0.557,43.837,6.490,6.773,-3.052,138.420,181.249
0.558,43.894,6.485,6.756,-3.018,138.381,181.274
0.560,43.969,6.480,6.732,-2.962,138.353,181.314
0.561,44.076,6.470,6.699,-2.877,138.340,181.378
0.563,44.227,6.450,6.655,-2.760,138.346,181.473
0.564,44.435,6.415,6.599,-2.602,138.375,181.606
0.565,44.712,6.359,6.529,-2.400,138.432,181.786
0.567,45.063,6.280,6.443,-2.149,138.518,182.017
0.568,45.476,6.179,6.345,-1.860,138.629,182.288
0.570,45.933,6.065,6.238,-1.542,138.760,182.591
0.571,46.420,5.943,6.126,-1.207,138.904,182.913
0.572,46.919,5.821,6.013,-0.865,139.055,183.243
0.574,47.414,5.707,5.902,-0.527,139.208,183.571
0.575,47.888,5.606,5.797,-0.204,139.356,183.885
0.577,48.326,5.525,5.702,0.094,139.495,184.174
0.578,48.711,5.466,5.620,0.356,139.618,184.428
0.580,49.026,5.426,5.550,0.571,139.719,184.636
0.581,49.259,5.403,5.493,0.730,139.793,184.788
0.582,49.415,5.394,5.452,0.838,139.842,184.889
0.584,49.506,5.397,5.426,0.901,139.869,184.949
