"T","Distance","Radius","FreeRadius","X","Y","Z"
0.000,0.000,2.520,2.520,200.112,224.195,192.473
0.001,0.092,2.502,2.502,200.034,224.149,192.487
0.003,0.179,2.483,2.483,199.961,224.104,192.501
0.004,0.256,2.465,2.465,199.897,224.063,192.515
0.006,0.318,2.445,2.445,199.847,224.029,192.529
0.007,0.361,2.424,2.424,199.817,224.002,192.544
0.008,0.384,2.402,2.402,199.811,223.985,192.559
0.010,0.412,2.378,2.378,199.833,223.980,192.574
0.011,0.471,2.352,2.352,199.890,223.989,192.590
0.013,0.570,2.329,2.329,199.984,224.014,192.606
0.014,0.715,2.315,2.315,200.121,224.056,192.624
0.015,0.912,2.315,2.315,200.307,224.119,192.641
0.017,1.164,2.337,2.337,200.545,224.203,192.660
0.018,1.470,2.387,2.387,200.831,224.307,192.679
0.019,1.818,2.470,2.470,201.156,224.430,192.696
0.021,2.197,2.593,2.593,201.510,224.566,192.712
0.022,2.598,2.752,2.752,201.883,224.713,192.725
0.024,3.010,2.934,2.934,202.265,224.868,192.734
0.025,3.423,3.125,3.125,202.645,225.028,192.738
0.026,3.826,3.313,3.313,203.014,225.189,192.736
0.028,4.208,3.482,3.482,203.362,225.347,192.727
0.029,4.561,3.619,3.619,203.679,225.501,192.709
0.031,4.873,3.712,3.712,203.955,225.645,192.683
0.032,5.136,3.752,3.752,204.179,225.778,192.646
0.033,5.347,3.752,3.752,204.347,225.897,192.598
0.035,5.514,3.722,3.722,204.462,226.002,192.542
0.036,5.646,3.676,3.676,204.533,226.095,192.479
0.038,5.756,3.625,3.625,204.564,226.175,192.410
0.039,5.855,3.583,3.583,204.563,226.244,192.339
0.040,5.952,3.560,3.560,204.536,226.303,192.267
0.042,6.051,3.567,3.567,204.490,226.351,192.195
0.043,6.150,3.601,3.601,204.431,226.391,192.126
0.045,6.247,3.654,3.654,204.365,226.423,192.062
0.046,6.338,3.719,3.719,204.299,226.447,192.004
0.047,6.417,3.790,3.790,204.240,226.465,191.955
0.049,6.479,3.859,3.859,204.193,226.477,191.916
0.050,6.524,3.920,3.920,204.160,226.484,191.886
0.051,6.554,3.966,3.966,204.138,226.488,191.866
0.053,6.572,3.996,3.996,204.128,226.489,191.851
0.054,6.581,4.012,4.012,204.127,226.489,191.843
0.056,6.590,4.018,4.018,204.134,226.490,191.838
0.057,6.604,4.017,4.017,204.148,226.492,191.835
0.058,6.624,4.009,4.009,204.168,226.496,191.833
0.060,6.650,4.000,4.000,204.192,226.504,191.831
0.061,6.680,3.990,3.990,204.218,226.518,191.827
0.063,6.715,3.982,3.982,204.247,226.537,191.818
0.064,6.757,3.976,3.976,204.275,226.564,191.805
0.065,6.805,3.974,3.974,204.303,226.599,191.786
0.067,6.861,3.974,3.974,204.330,226.642,191.762
0.068,6.923,3.979,3.979,204.356,226.691,191.734
0.070,6.992,3.987,3.987,204.381,226.746,191.703
0.071,7.065,4.001,4.001,204.405,226.807,191.669
0.072,7.142,4.020,4.020,204.427,226.872,191.634
0.074,7.223,4.042,4.042,204.447,226.941,191.598
0.075,7.307,4.067,4.067,204.466,227.014,191.561
0.076,7.392,4.092,4.092,204.482,227.090,191.526
0.078,7.477,4.117,4.117,204.497,227.167,191.492
0.079,7.563,4.140,4.140,204.509,227.246,191.461
0.081,7.648,4.160,4.160,204.518,227.326,191.433
0.082,7.732,4.175,4.175,204.526,227.405,191.407
0.083,7.815,4.186,4.186,204.532,227.484,191.382
0.085,7.895,4.194,4.194,204.537,227.560,191.358
0.086,7.973,4.199,4.199,204.542,227.634,191.333
0.088,8.047,4.203,4.203,204.548,227.703,191.307
0.089,8.119,4.207,4.207,204.554,227.768,191.277
0.090,8.187,4.211,4.211,204.562,227.828,191.244
0.092,8.253,4.216,4.216,204.572,227.881,191.206
0.093,8.318,4.223,4.223,204.584,227.926,191.162
0.095,8.382,4.233,4.233,204.600,227.963,191.111
0.096,8.450,4.244,4.244,204.619,227.991,191.053
0.097,8.523,4.259,4.259,204.642,228.009,190.986
0.099,8.601,4.277,4.277,204.669,228.021,190.914
0.100,8.683,4.298,4.298,204.698,228.026,190.837
0.102,8.770,4.324,4.324,204.731,228.027,190.757
0.103,8.858,4.352,4.352,204.766,228.025,190.676
0.104,8.948,4.382,4.382,204.803,228.021,190.594
0.106,9.037,4.410,4.410,204.842,228.017,190.514
0.107,9.124,4.435,4.435,204.882,228.015,190.437
0.108,9.207,4.454,4.454,204.923,228.016,190.365
0.110,9.285,4.465,4.465,204.965,228.021,190.299
0.111,9.358,4.466,4.466,205.008,228.032,190.241
0.113,9.425,4.455,4.455,205.050,228.049,190.192
0.114,9.488,4.435,4.435,205.092,228.072,190.151
0.115,9.547,4.408,4.408,205.133,228.100,190.118
0.117,9.603,4.377,4.377,205.172,228.130,190.093
0.118,9.655,4.344,4.344,205.210,228.161,190.076
0.120,9.703,4.312,4.312,205.245,228.192,190.066
0.121,9.747,4.283,4.283,205.278,228.222,190.062
0.122,9.787,4.260,4.260,205.307,228.249,190.064
0.124,9.822,4.244,4.244,205.332,228.271,190.072
0.125,9.852,4.232,4.232,205.353,228.288,190.085
0.127,9.878,4.225,4.225,205.370,228.298,190.103
0.128,9.903,4.223,4.223,205.381,228.299,190.126
0.129,9.930,4.224,4.224,205.387,228.292,190.151
0.131,9.958,4.228,4.228,205.390,228.281,190.177
0.132,9.984,4.234,4.234,205.390,228.268,190.200
0.134,10.007,4.241,4.241,205.389,228.255,190.218
0.135,10.022,4.248,4.248,205.386,228.245,190.229
0.136,10.027,4.254,4.254,205.383,228.241,190.231
0.138,10.039,4.255,4.255,205.381,228.244,190.220
0.139,10.068,4.252,4.252,205.381,228.258,190.194
0.140,10.119,4.242,4.242,205.384,228.286,190.152
0.142,10.194,4.225,4.225,205.390,228.329,190.090
0.143,10.299,4.199,4.199,205.401,228.390,190.006
0.145,10.433,4.167,4.167,205.416,228.470,189.899
0.146,10.594,4.131,4.131,205.437,228.568,189.773
0.147,10.778,4.093,4.093,205.460,228.681,189.630
0.149,10.981,4.056,4.056,205.487,228.807,189.474
0.150,11.198,4.021,4.021,205.515,228.944,189.307
0.152,11.427,3.992,3.992,205.545,229.090,189.134
0.153,11.663,3.969,3.969,205.575,229.243,188.957
0.154,11.902,3.953,3.953,205.605,229.401,188.779
0.156,12.142,3.944,3.944,205.635,229.562,188.604
0.157,12.377,3.940,3.940,205.662,229.723,188.435
0.159,12.605,3.942,3.942,205.687,229.883,188.274
0.160,12.822,3.949,3.949,205.709,230.039,188.126
0.161,13.027,3.960,3.960,205.729,230.191,187.989
0.163,13.221,3.976,3.976,205.748,230.338,187.864
0.164,13.405,3.995,3.995,205.766,230.481,187.750
0.166,13.578,4.015,4.015,205.784,230.619,187.646
0.167,13.742,4.034,4.034,205.805,230.751,187.552
0.168,13.896,4.051,4.051,205.827,230.878,187.468
0.170,14.040,4.065,4.065,205.854,230.998,187.392
0.171,14.177,4.072,4.072,205.885,231.112,187.325
0.172,14.305,4.073,4.073,205.922,231.220,187.265
0.174,14.426,4.066,4.066,205.966,231.320,187.212
0.175,14.542,4.055,4.055,206.017,231.413,187.166
0.177,14.656,4.041,4.041,206.077,231.500,187.124
0.178,14.771,4.027,4.027,206.147,231.582,187.084
0.179,14.891,4.015,4.015,206.228,231.662,187.042
0.181,15.022,4.008,4.008,206.320,231.741,186.995
0.182,15.166,4.007,4.007,206.424,231.823,186.939
0.184,15.327,4.014,4.014,206.543,231.908,186.871
0.185,15.508,4.032,4.032,206.676,232.000,186.789
0.186,15.713,4.063,4.063,206.824,232.099,186.688
0.188,15.947,4.109,4.109,206.989,232.209,186.565
0.189,16.212,4.172,4.172,207.172,232.331,186.417
0.191,16.512,4.253,4.253,207.373,232.468,186.241
0.192,16.849,4.355,4.355,207.593,232.621,186.035
0.193,17.217,4.479,4.479,207.827,232.785,185.804
0.195,17.607,4.621,4.621,208.071,232.959,185.555
0.196,18.010,4.774,4.774,208.320,233.137,185.293
0.197,18.417,4.933,4.933,208.569,233.317,185.025
0.199,18.820,5.093,5.093,208.813,233.493,184.757
0.200,19.211,5.247,5.247,209.049,233.664,184.496
0.202,19.580,5.391,5.391,209.270,233.823,184.248
0.203,19.918,5.520,5.520,209.472,233.969,184.019
0.204,20.218,5.631,5.631,209.651,234.097,183.815
0.206,20.470,5.726,5.726,209.801,234.203,183.643
0.207,20.666,5.805,5.805,209.919,234.284,183.509
0.209,20.807,5.869,5.869,210.005,234.340,183.412
0.210,20.900,5.919,5.919,210.062,234.375,183.348
0.211,20.951,5.955,5.955,210.095,234.391,183.312
0.213,20.967,5.978,5.978,210.107,234.391,183.302
0.214,20.982,5.990,5.990,210.103,234.380,183.311
0.216,21.019,5.992,5.992,210.087,234.360,183.336
0.217,21.070,5.989,5.989,210.062,234.334,183.373
0.218,21.129,5.981,5.981,210.033,234.305,183.416
0.220,21.191,5.972,5.972,210.003,234.277,183.462
0.221,21.248,5.964,5.964,209.977,234.254,183.507
0.223,21.294,5.960,5.960,209.958,234.237,183.545
0.224,21.325,5.961,5.961,209.949,234.229,183.575
0.225,21.346,5.966,5.967,209.950,234.230,183.595
0.227,21.364,5.975,5.976,209.961,234.240,183.607
0.228,21.391,5.987,5.987,209.981,234.257,183.610
0.229,21.428,6.000,6.001,210.008,234.282,183.605
0.231,21.477,6.014,6.014,210.044,234.313,183.592
0.232,21.538,6.028,6.028,210.086,234.351,183.571
0.234,21.609,6.041,6.040,210.136,234.394,183.543
0.235,21.690,6.053,6.052,210.191,234.442,183.508
0.236,21.780,6.064,6.063,210.252,234.494,183.466
0.238,21.879,6.075,6.074,210.317,234.550,183.418
0.239,21.986,6.087,6.086,210.388,234.609,183.363
0.241,22.100,6.100,6.099,210.461,234.672,183.303
0.242,22.219,6.113,6.113,210.537,234.737,183.239
0.243,22.341,6.129,6.130,210.614,234.804,183.172
0.245,22.465,6.145,6.147,210.692,234.874,183.104
0.246,22.591,6.162,6.166,210.768,234.945,183.035
0.248,22.715,6.179,6.183,210.842,235.018,182.966
0.249,22.838,6.195,6.199,210.913,235.092,182.899
0.250,22.957,6.209,6.213,210.980,235.167,182.835
0.252,23.071,6.221,6.223,211.041,235.243,182.775
0.253,23.180,6.230,6.229,211.096,235.319,182.721
0.255,23.282,6.236,6.230,211.143,235.395,182.673
0.256,23.377,6.239,6.228,211.183,235.471,182.631
0.257,23.467,6.240,6.225,211.215,235.547,182.595
0.259,23.553,6.238,6.222,211.240,235.623,182.563
0.260,23.636,6.235,6.220,211.260,235.698,182.534
0.261,23.717,6.230,6.221,211.275,235.773,182.507
0.263,23.796,6.225,6.227,211.286,235.848,182.481
0.264,23.875,6.219,6.238,211.292,235.921,182.455
0.266,23.953,6.212,6.253,211.297,235.994,182.427
0.267,24.031,6.203,6.268,211.299,236.066,182.396
0.268,24.110,6.192,6.283,211.299,236.137,182.362
0.270,24.191,6.179,6.294,211.300,236.207,182.322
0.271,24.274,6.163,6.301,211.300,236.276,182.277
0.273,24.361,6.143,6.300,211.299,236.345,182.224
0.274,24.454,6.119,6.290,211.299,236.415,182.162
0.275,24.555,6.090,6.271,211.297,236.485,182.089
0.277,24.666,6.057,6.243,211.293,236.558,182.006
0.278,24.789,6.018,6.206,211.287,236.634,181.909
0.280,24.926,5.972,6.160,211.279,236.713,181.798
0.281,25.078,5.920,6.107,211.268,236.798,181.671
0.282,25.248,5.860,6.045,211.254,236.887,181.528
0.284,25.437,5.792,5.976,211.236,236.984,181.366
0.285,25.647,5.718,5.901,211.214,237.087,181.185
0.287,25.879,5.641,5.824,211.188,237.198,180.982
0.288,26.131,5.562,5.746,211.157,237.316,180.761
0.289,26.398,5.485,5.670,211.122,237.438,180.527
0.291,26.675,5.413,5.600,211.085,237.563,180.283
0.292,26.955,5.348,5.539,211.045,237.689,180.036
0.293,27.233,5.293,5.488,211.004,237.811,179.790
0.295,27.503,5.249,5.448,210.963,237.929,179.550
0.296,27.761,5.214,5.419,210.922,238.041,179.321
0.298,28.001,5.187,5.398,210.881,238.143,179.108
0.299,28.217,5.167,5.382,210.843,238.233,178.916
0.300,28.403,5.151,5.370,210.807,238.310,178.750
0.302,28.555,5.138,5.360,210.774,238.370,178.614
0.303,28.669,5.127,5.350,210.745,238.413,178.513
0.305,28.750,5.116,5.338,210.720,238.440,178.441
0.306,28.803,5.105,5.325,210.699,238.455,178.394
0.307,28.833,5.096,5.312,210.682,238.458,178.369
0.309,28.850,5.088,5.299,210.669,238.453,178.360
0.310,28.864,5.082,5.287,210.662,238.442,178.363
0.312,28.882,5.078,5.276,210.658,238.426,178.373
0.313,28.904,5.077,5.269,210.660,238.410,178.387
0.314,28.925,5.079,5.264,210.666,238.393,178.399
0.316,28.944,5.084,5.261,210.678,238.380,178.405
0.317,28.962,5.090,5.260,210.694,238.373,178.401
0.318,28.991,5.095,5.258,210.716,238.372,178.382
0.320,29.034,5.100,5.254,210.742,238.379,178.349
0.321,29.089,5.102,5.247,210.772,238.392,178.304
0.323,29.155,5.101,5.236,210.804,238.410,178.249
0.324,29.229,5.095,5.219,210.838,238.431,178.187
0.325,29.308,5.085,5.196,210.872,238.454,178.120
0.327,29.389,5.071,5.169,210.905,238.478,178.049
0.328,29.470,5.055,5.140,210.936,238.502,177.979
0.330,29.548,5.037,5.108,210.965,238.525,177.910
0.331,29.620,5.020,5.077,210.990,238.544,177.846
0.332,29.683,5.004,5.046,211.010,238.560,177.787
0.334,29.735,4.990,5.018,211.024,238.570,177.738
0.335,29.777,4.978,4.993,211.031,238.574,177.697
0.337,29.811,4.968,4.970,211.034,238.575,177.663
0.338,29.841,4.958,4.950,211.032,238.575,177.633
0.339,29.871,4.946,4.932,211.027,238.576,177.604
0.341,29.903,4.932,4.917,211.020,238.579,177.572
0.342,29.941,4.913,4.903,211.012,238.587,177.536
0.344,29.988,4.889,4.890,211.003,238.601,177.493
0.345,30.048,4.858,4.878,210.995,238.625,177.439
0.346,30.124,4.822,4.866,210.989,238.660,177.371
0.348,30.220,4.779,4.852,210.986,238.708,177.288
0.349,30.340,4.732,4.833,210.987,238.771,177.186
0.350,30.486,4.679,4.809,210.993,238.850,177.063
0.352,30.658,4.623,4.778,211.004,238.946,176.920
0.353,30.854,4.562,4.738,211.019,239.055,176.759
0.355,31.069,4.499,4.687,211.040,239.176,176.582
0.356,31.303,4.434,4.629,211.065,239.308,176.391
0.357,31.551,4.371,4.566,211.095,239.447,176.187
0.359,31.813,4.310,4.503,211.130,239.594,175.974
0.360,32.084,4.254,4.444,211.170,239.745,175.752
0.362,32.363,4.207,4.391,211.215,239.899,175.524
0.363,32.646,4.169,4.350,211.265,240.054,175.292
0.364,32.932,4.142,4.323,211.319,240.209,175.058
0.366,33.218,4.128,4.312,211.378,240.361,174.823
0.367,33.501,4.126,4.314,211.440,240.509,174.590
0.369,33.780,4.133,4.328,211.505,240.652,174.360
0.370,34.052,4.148,4.351,211.570,240.790,174.134
0.371,34.316,4.171,4.383,211.633,240.921,173.914
0.373,34.569,4.200,4.421,211.693,241.044,173.701
0.374,34.809,4.234,4.464,211.747,241.159,173.498
0.376,35.035,4.271,4.509,211.795,241.264,173.304
0.377,35.244,4.312,4.555,211.833,241.360,173.122
0.378,35.435,4.355,4.601,211.861,241.444,172.953
0.380,35.606,4.398,4.644,211.877,241.516,172.799
0.381,35.756,4.443,4.683,211.877,241.576,172.660
0.382,35.887,4.487,4.717,211.863,241.622,172.539
0.384,36.003,4.529,4.743,211.836,241.657,172.432
0.385,36.109,4.570,4.762,211.797,241.684,172.337
0.387,36.208,4.609,4.775,211.751,241.706,172.251
0.388,36.305,4.646,4.787,211.699,241.725,172.173
0.389,36.399,4.682,4.803,211.643,241.743,172.099
0.391,36.494,4.716,4.825,211.586,241.764,172.026
0.392,36.589,4.749,4.858,211.531,241.790,171.953
0.394,36.687,4.781,4.905,211.480,241.823,171.876
0.395,36.790,4.812,4.970,211.436,241.867,171.794
0.396,36.903,4.842,5.050,211.401,241.924,171.703
0.398,37.030,4.873,5.138,211.377,241.996,171.601
0.399,37.171,4.905,5.230,211.364,242.082,171.490
0.401,37.323,4.940,5.318,211.361,242.179,171.373
0.402,37.481,4.977,5.397,211.366,242.283,171.254
0.403,37.642,5.019,5.461,211.377,242.392,171.136
0.405,37.799,5.065,5.504,211.394,242.500,171.024
0.406,37.949,5.114,5.525,211.413,242.606,170.919
0.408,38.087,5.164,5.530,211.435,242.706,170.827
0.409,38.207,5.211,5.521,211.457,242.796,170.751
0.410,38.305,5.251,5.505,211.478,242.873,170.694
0.412,38.377,5.283,5.486,211.495,242.934,170.659
0.413,38.421,5.301,5.468,211.508,242.975,170.652
0.414,38.449,5.304,5.457,211.516,242.996,170.670
0.416,38.488,5.290,5.455,211.520,242.999,170.708
0.417,38.538,5.263,5.459,211.519,242.989,170.757
0.419,38.595,5.229,5.467,211.516,242.971,170.811
0.420,38.651,5.192,5.476,211.511,242.949,170.862
0.421,38.697,5.156,5.483,211.504,242.926,170.902
0.423,38.726,5.127,5.485,211.497,242.907,170.923
0.424,38.740,5.109,5.480,211.490,242.896,170.918
0.426,38.779,5.106,5.465,211.484,242.897,170.879
0.427,38.861,5.119,5.445,211.481,242.914,170.799
0.428,38.996,5.147,5.426,211.480,242.952,170.670
0.430,39.189,5.188,5.413,211.483,243.014,170.486
0.431,39.436,5.242,5.412,211.490,243.097,170.254
0.433,39.725,5.308,5.429,211.500,243.196,169.983
0.434,40.044,5.386,5.470,211.515,243.307,169.684
0.435,40.382,5.473,5.538,211.533,243.424,169.367
0.437,40.729,5.568,5.631,211.556,243.544,169.042
0.438,41.073,5.663,5.737,211.582,243.660,168.720
0.439,41.402,5.755,5.848,211.613,243.769,168.411
0.441,41.707,5.838,5.954,211.648,243.865,168.124
0.442,41.975,5.907,6.045,211.687,243.944,167.871
0.444,42.196,5.956,6.111,211.730,244.001,167.661
0.445,42.362,5.981,6.143,211.778,244.032,167.505
0.446,42.475,5.982,6.139,211.828,244.036,167.404
0.448,42.550,5.964,6.107,211.878,244.020,167.350
0.449,42.607,5.933,6.056,211.924,243.991,167.333
0.451,42.662,5.895,5.995,211.962,243.954,167.346
0.452,42.717,5.855,5.930,211.990,243.918,167.378
0.453,42.772,5.821,5.872,212.003,243.888,167.421
0.455,42.820,5.796,5.827,211.999,243.871,167.467
0.456,42.866,5.786,5.802,211.974,243.874,167.505
0.458,42.928,5.787,5.794,211.925,243.903,167.528
0.459,43.026,5.796,5.797,211.848,243.964,167.527
0.460,43.179,5.810,5.809,211.740,244.065,167.491
0.462,43.394,5.826,5.824,211.600,244.210,167.417
0.463,43.665,5.841,5.840,211.431,244.392,167.307
0.465,43.982,5.851,5.851,211.240,244.603,167.168
0.466,44.332,5.853,5.854,211.033,244.835,167.006
0.467,44.705,5.849,5.850,210.816,245.081,166.829
0.469,45.087,5.838,5.840,210.596,245.331,166.643
0.470,45.467,5.823,5.824,210.378,245.579,166.454
0.471,45.833,5.804,5.804,210.168,245.815,166.268
0.473,46.173,5.782,5.782,209.972,246.031,166.093
0.474,46.476,5.758,5.758,209.798,246.220,165.935
0.476,46.728,5.734,5.734,209.650,246.374,165.799
0.477,46.920,5.711,5.711,209.534,246.484,165.694
0.478,47.051,5.690,5.690,209.450,246.552,165.618
0.480,47.132,5.671,5.671,209.396,246.584,165.569
0.481,47.171,5.656,5.657,209.367,246.589,165.543
0.483,47.191,5.647,5.647,209.358,246.572,165.537
0.484,47.224,5.643,5.643,209.367,246.541,165.547
0.485,47.274,5.647,5.646,209.390,246.504,165.570
0.487,47.333,5.657,5.656,209.422,246.466,165.602
0.488,47.395,5.670,5.669,209.460,246.436,165.641
0.490,47.454,5.685,5.682,209.500,246.421,165.682
0.491,47.509,5.696,5.693,209.538,246.427,165.721
0.492,47.568,5.701,5.699,209.570,246.461,165.757
0.494,47.645,5.698,5.696,209.595,246.528,165.785
0.495,47.743,5.682,5.683,209.611,246.622,165.807
0.497,47.860,5.653,5.656,209.621,246.737,165.822
0.498,47.991,5.612,5.620,209.625,246.868,165.832
0.499,48.132,5.564,5.576,209.623,247.009,165.836
0.501,48.277,5.512,5.528,209.617,247.154,165.835
0.502,48.420,5.458,5.480,209.608,247.297,165.830
0.503,48.556,5.407,5.433,209.596,247.432,165.820
0.505,48.679,5.362,5.390,209.582,247.553,165.806
0.506,48.784,5.325,5.356,209.567,247.656,165.789
0.508,48.865,5.297,5.329,209.553,247.733,165.769
0.509,48.919,5.275,5.309,209.539,247.779,165.746
0.510,48.952,5.259,5.296,209.527,247.800,165.723
0.512,48.976,5.246,5.287,209.519,247.802,165.700
0.513,48.999,5.234,5.283,209.516,247.792,165.680
0.515,49.020,5.224,5.282,209.520,247.779,165.665
0.516,49.038,5.211,5.284,209.533,247.768,165.656
0.517,49.062,5.196,5.287,209.557,247.769,165.655
0.519,49.103,5.178,5.287,209.592,247.789,165.665
0.520,49.173,5.154,5.283,209.640,247.834,165.687
0.522,49.280,5.124,5.270,209.704,247.912,165.723
0.523,49.433,5.087,5.246,209.784,248.031,165.775
0.524,49.639,5.042,5.209,209.883,248.198,165.845
0.526,49.899,4.987,5.154,209.999,248.415,165.932
0.527,50.204,4.923,5.084,210.129,248.671,166.034
0.529,50.544,4.852,5.002,210.270,248.959,166.146
0.530,50.907,4.777,4.916,210.419,249.269,166.265
0.531,51.285,4.700,4.831,210.571,249.592,166.388
0.533,51.667,4.624,4.753,210.722,249.919,166.512
0.534,52.041,4.552,4.687,210.870,250.242,166.632
0.535,52.399,4.486,4.641,211.011,250.550,166.746
0.537,52.730,4.428,4.617,211.141,250.836,166.850
0.538,53.022,4.380,4.612,211.257,251.089,166.940
0.540,53.267,4.342,4.623,211.355,251.302,167.013
0.541,53.456,4.315,4.645,211.432,251.466,167.067
0.542,53.593,4.300,4.674,211.489,251.585,167.102
0.544,53.683,4.297,4.705,211.527,251.664,167.121
0.545,53.733,4.308,4.734,211.550,251.708,167.127
0.547,53.750,4.333,4.757,211.558,251.722,167.122
0.548,53.768,4.369,4.773,211.554,251.712,167.108
0.549,53.807,4.412,4.783,211.539,251.682,167.087
0.551,53.862,4.457,4.785,211.515,251.639,167.063
0.552,53.928,4.499,4.780,211.485,251.586,167.038
0.554,53.999,4.535,4.769,211.449,251.530,167.013
0.555,54.069,4.560,4.750,211.410,251.476,166.991
0.556,54.134,4.569,4.725,211.369,251.428,166.975
0.558,54.190,4.564,4.694,211.329,251.390,166.964
0.559,54.237,4.547,4.663,211.292,251.363,166.958
0.561,54.273,4.521,4.635,211.259,251.348,166.953
0.562,54.300,4.491,4.614,211.233,251.345,166.949
0.563,54.321,4.460,4.603,211.216,251.356,166.942
0.565,54.349,4.431,4.607,211.210,251.382,166.932
0.566,54.394,4.408,4.629,211.217,251.423,166.917
0.567,54.460,4.393,4.671,211.239,251.481,166.894
