"T","Distance","Radius","FreeRadius","X","Y","Z"
0.000,0.000,2.326,2.326,211.525,192.351,194.779
0.001,0.495,2.495,2.495,211.302,192.144,195.170
0.003,0.986,2.662,2.662,211.081,191.940,195.558
0.004,1.466,2.824,2.824,210.865,191.741,195.937
0.006,1.932,2.977,2.977,210.655,191.548,196.306
0.007,2.377,3.120,3.120,210.455,191.364,196.659
0.008,2.797,3.250,3.250,210.267,191.192,196.993
0.010,3.188,3.364,3.364,210.093,191.034,197.304
0.011,3.543,3.459,3.459,209.935,190.892,197.589
0.013,3.859,3.538,3.538,209.796,190.768,197.844
0.014,4.129,3.602,3.602,209.678,190.665,198.064
0.015,4.350,3.654,3.654,209.583,190.584,198.246
0.017,4.516,3.697,3.697,209.514,190.529,198.387
0.018,4.631,3.733,3.733,209.469,190.497,198.488
0.019,4.701,3.766,3.766,209.445,190.485,198.553
0.021,4.736,3.798,3.798,209.438,190.486,198.586
0.022,4.751,3.830,3.830,209.444,190.498,198.594
0.024,4.778,3.861,3.861,209.459,190.515,198.579
0.025,4.820,3.892,3.892,209.480,190.534,198.548
0.026,4.871,3.923,3.923,209.503,190.549,198.504
0.028,4.927,3.951,3.951,209.524,190.555,198.453
0.029,4.983,3.978,3.978,209.539,190.549,198.399
0.031,5.041,4.003,4.003,209.544,190.527,198.347
0.032,5.105,4.025,4.025,209.536,190.482,198.301
0.033,5.185,4.046,4.046,209.513,190.414,198.265
0.035,5.285,4.066,4.066,209.476,190.326,198.238
0.036,5.401,4.086,4.086,209.428,190.221,198.219
0.038,5.531,4.106,4.106,209.372,190.106,198.207
0.039,5.669,4.128,4.128,209.309,189.983,198.201
0.040,5.811,4.151,4.151,209.243,189.857,198.200
0.042,5.953,4.178,4.178,209.175,189.732,198.202
0.043,6.090,4.205,4.205,209.108,189.613,198.207
0.045,6.215,4.233,4.233,209.045,189.504,198.213
0.046,6.326,4.260,4.260,208.988,189.410,198.219
0.047,6.416,4.284,4.284,208.940,189.334,198.225
0.049,6.481,4.304,4.304,208.902,189.281,198.229
0.050,6.523,4.318,4.318,208.876,189.248,198.231
0.051,6.546,4.326,4.326,208.858,189.233,198.231
0.053,6.555,4.328,4.328,208.849,189.232,198.231
0.054,6.564,4.325,4.325,208.847,189.241,198.230
0.056,6.580,4.319,4.319,208.851,189.256,198.228
0.057,6.599,4.313,4.313,208.860,189.273,198.228
0.058,6.619,4.307,4.307,208.872,189.288,198.228
0.060,6.637,4.303,4.303,208.886,189.299,198.229
0.061,6.652,4.303,4.303,208.902,189.300,198.232
0.063,6.672,4.308,4.308,208.917,189.289,198.237
0.064,6.704,4.315,4.315,208.932,189.261,198.244
0.065,6.752,4.326,4.326,208.944,189.216,198.254
0.067,6.815,4.337,4.337,208.954,189.155,198.267
0.068,6.890,4.349,4.349,208.963,189.082,198.281
0.070,6.974,4.361,4.361,208.969,189.000,198.296
0.071,7.066,4.370,4.370,208.974,188.910,198.312
0.072,7.161,4.378,4.378,208.977,188.816,198.328
0.074,7.258,4.383,4.383,208.978,188.720,198.344
0.075,7.353,4.387,4.387,208.977,188.626,198.359
0.076,7.444,4.389,4.389,208.975,188.536,198.373
0.078,7.529,4.392,4.392,208.970,188.453,198.385
0.079,7.603,4.394,4.394,208.965,188.379,198.395
0.081,7.666,4.397,4.397,208.957,188.317,198.403
0.082,7.717,4.401,4.401,208.949,188.267,198.408
0.083,7.758,4.406,4.406,208.940,188.228,198.411
0.085,7.789,4.411,4.411,208.931,188.198,198.412
0.086,7.811,4.416,4.416,208.923,188.178,198.412
0.088,7.825,4.420,4.420,208.915,188.165,198.412
0.089,7.833,4.423,4.423,208.909,188.160,198.411
0.090,7.838,4.425,4.425,208.905,188.162,198.410
0.092,7.845,4.424,4.424,208.903,188.169,198.410
0.093,7.856,4.422,4.422,208.905,188.180,198.410
0.095,7.873,4.418,4.418,208.910,188.196,198.412
0.096,7.894,4.414,4.414,208.920,188.214,198.415
0.097,7.918,4.410,4.410,208.932,188.234,198.420
0.099,7.943,4.406,4.406,208.946,188.254,198.425
0.100,7.966,4.404,4.404,208.960,188.272,198.431
0.102,7.984,4.405,4.405,208.970,188.286,198.436
0.103,7.996,4.407,4.407,208.977,188.295,198.440
0.104,7.999,4.411,4.411,208.976,188.297,198.442
0.106,8.010,4.416,4.416,208.967,188.291,198.441
0.107,8.036,4.423,4.423,208.948,188.274,198.437
0.108,8.080,4.429,4.429,208.916,188.244,198.429
0.110,8.145,4.436,4.436,208.870,188.201,198.416
0.111,8.233,4.442,4.442,208.807,188.142,198.398
0.113,8.345,4.447,4.447,208.727,188.067,198.375
0.114,8.477,4.451,4.451,208.632,187.979,198.347
0.115,8.626,4.455,4.455,208.527,187.880,198.314
0.117,8.785,4.460,4.460,208.413,187.774,198.278
0.118,8.951,4.464,4.464,208.296,187.664,198.240
0.120,9.118,4.470,4.470,208.177,187.553,198.200
0.121,9.282,4.477,4.477,208.061,187.445,198.159
0.122,9.437,4.485,4.485,207.951,187.342,198.119
0.124,9.581,4.494,4.494,207.850,187.249,198.079
0.125,9.707,4.504,4.504,207.762,187.167,198.041
0.127,9.811,4.515,4.515,207.689,187.101,198.006
0.128,9.889,4.526,4.526,207.636,187.054,197.974
0.129,9.944,4.537,4.537,207.601,187.022,197.946
0.131,9.982,4.547,4.547,207.581,187.002,197.920
0.132,10.010,4.556,4.556,207.574,186.990,197.896
0.134,10.034,4.564,4.564,207.577,186.979,197.874
0.135,10.060,4.569,4.569,207.586,186.967,197.854
0.136,10.091,4.572,4.572,207.599,186.947,197.834
0.138,10.131,4.572,4.572,207.612,186.915,197.813
0.139,10.184,4.568,4.568,207.624,186.868,197.793
0.140,10.256,4.560,4.560,207.630,186.799,197.771
0.142,10.353,4.546,4.546,207.628,186.705,197.747
0.143,10.481,4.528,4.528,207.615,186.580,197.721
0.145,10.642,4.506,4.506,207.591,186.424,197.693
0.146,10.830,4.480,4.480,207.555,186.242,197.664
0.147,11.040,4.452,4.452,207.510,186.039,197.635
0.149,11.267,4.422,4.422,207.457,185.820,197.607
0.150,11.504,4.392,4.392,207.399,185.592,197.582
0.152,11.745,4.361,4.361,207.337,185.359,197.561
0.153,11.986,4.331,4.331,207.272,185.128,197.544
0.154,12.220,4.303,4.303,207.207,184.904,197.533
0.156,12.441,4.278,4.278,207.143,184.692,197.530
0.157,12.644,4.257,4.257,207.082,184.498,197.535
0.159,12.824,4.241,4.241,207.026,184.328,197.550
0.160,12.976,4.232,4.232,206.975,184.186,197.575
0.161,13.105,4.230,4.230,206.930,184.071,197.611
0.163,13.216,4.237,4.237,206.889,183.979,197.656
0.164,13.313,4.250,4.250,206.852,183.905,197.709
0.166,13.404,4.266,4.266,206.818,183.847,197.769
0.167,13.492,4.283,4.283,206.785,183.800,197.836
0.168,13.581,4.297,4.297,206.753,183.761,197.909
0.170,13.672,4.306,4.306,206.721,183.725,197.986
0.171,13.767,4.305,4.305,206.687,183.690,198.067
0.172,13.866,4.294,4.294,206.650,183.650,198.151
0.174,13.972,4.272,4.271,206.611,183.602,198.236
0.175,14.085,4.243,4.243,206.566,183.544,198.322
0.177,14.209,4.213,4.213,206.517,183.471,198.409
0.178,14.343,4.186,4.186,206.459,183.386,198.497
0.179,14.491,4.166,4.166,206.393,183.287,198.584
0.181,14.652,4.158,4.158,206.317,183.175,198.672
0.182,14.829,4.166,4.166,206.228,183.051,198.761
0.184,15.021,4.193,4.193,206.125,182.915,198.849
0.185,15.231,4.238,4.238,206.007,182.766,198.939
0.186,15.459,4.297,4.297,205.873,182.605,199.028
0.188,15.707,4.371,4.371,205.719,182.433,199.118
0.189,15.975,4.455,4.455,205.546,182.249,199.209
0.191,16.266,4.549,4.549,205.350,182.054,199.300
0.192,16.579,4.651,4.651,205.133,181.848,199.391
0.193,16.910,4.758,4.758,204.898,181.633,199.482
0.195,17.253,4.870,4.870,204.651,181.412,199.572
0.196,17.603,4.983,4.983,204.399,181.188,199.661
0.197,17.954,5.098,5.098,204.145,180.961,199.748
0.199,18.301,5.212,5.212,203.896,180.735,199.833
0.200,18.637,5.324,5.324,203.658,180.512,199.914
0.202,18.957,5.432,5.432,203.436,180.295,199.992
0.203,19.256,5.534,5.534,203.236,180.085,200.066
0.204,19.529,5.630,5.630,203.063,179.886,200.134
0.206,19.771,5.720,5.720,202.923,179.698,200.198
0.207,19.980,5.803,5.803,202.822,179.526,200.256
0.209,20.158,5.880,5.880,202.757,179.368,200.307
0.210,20.311,5.949,5.949,202.726,179.225,200.354
0.211,20.446,6.011,6.011,202.722,179.097,200.396
0.213,20.568,6.066,6.066,202.742,178.982,200.433
0.214,20.682,6.114,6.114,202.781,178.881,200.466
0.216,20.789,6.155,6.154,202.833,178.792,200.496
0.217,20.891,6.190,6.189,202.894,178.715,200.523
0.218,20.986,6.219,6.219,202.960,178.651,200.547
0.220,21.073,6.244,6.243,203.025,178.598,200.569
0.221,21.149,6.265,6.264,203.085,178.555,200.590
0.223,21.211,6.281,6.282,203.135,178.523,200.609
0.224,21.259,6.295,6.296,203.171,178.500,200.628
0.225,21.293,6.307,6.308,203.196,178.484,200.646
0.227,21.318,6.316,6.318,203.208,178.473,200.665
0.228,21.338,6.325,6.327,203.210,178.465,200.683
0.229,21.361,6.333,6.335,203.203,178.456,200.702
0.231,21.389,6.341,6.343,203.186,178.445,200.722
0.232,21.424,6.350,6.350,203.162,178.430,200.743
0.234,21.468,6.360,6.358,203.131,178.407,200.765
0.235,21.523,6.371,6.366,203.093,178.376,200.789
0.236,21.588,6.383,6.375,203.051,178.333,200.815
0.238,21.667,6.394,6.385,203.005,178.275,200.843
0.239,21.760,6.406,6.397,202.956,178.202,200.874
0.241,21.866,6.416,6.409,202.904,178.116,200.907
0.242,21.981,6.425,6.423,202.852,178.020,200.942
0.243,22.101,6.433,6.439,202.799,177.918,200.978
0.245,22.223,6.439,6.455,202.748,177.814,201.015
0.246,22.343,6.443,6.471,202.698,177.712,201.052
0.248,22.456,6.445,6.485,202.651,177.616,201.090
0.249,22.560,6.447,6.497,202.608,177.529,201.127
0.250,22.650,6.447,6.504,202.571,177.456,201.164
0.252,22.723,6.446,6.505,202.539,177.401,201.199
0.253,22.777,6.444,6.500,202.514,177.366,201.232
0.255,22.813,6.441,6.488,202.497,177.357,201.264
0.256,22.847,6.437,6.472,202.488,177.372,201.293
0.257,22.888,6.433,6.454,202.485,177.404,201.318
0.259,22.934,6.428,6.436,202.486,177.446,201.338
0.260,22.981,6.421,6.421,202.490,177.490,201.354
0.261,23.021,6.414,6.411,202.494,177.528,201.363
0.263,23.047,6.406,6.407,202.497,177.554,201.365
0.264,23.055,6.396,6.411,202.496,177.560,201.359
0.266,23.082,6.382,6.418,202.490,177.538,201.345
0.267,23.145,6.362,6.424,202.478,177.481,201.321
0.268,23.252,6.334,6.424,202.456,177.381,201.287
0.270,23.412,6.295,6.412,202.424,177.232,201.241
0.271,23.629,6.243,6.384,202.380,177.028,201.184
0.273,23.896,6.176,6.336,202.326,176.774,201.116
0.274,24.206,6.092,6.264,202.262,176.482,201.039
0.275,24.548,5.994,6.172,202.191,176.158,200.955
0.277,24.914,5.888,6.068,202.114,175.812,200.865
0.278,25.293,5.779,5.958,202.034,175.452,200.772
0.280,25.678,5.672,5.851,201.951,175.089,200.677
0.281,26.058,5.572,5.752,201.869,174.731,200.581
0.282,26.425,5.484,5.669,201.788,174.385,200.487
0.284,26.769,5.413,5.608,201.711,174.063,200.395
0.285,27.081,5.359,5.570,201.638,173.772,200.308
0.287,27.353,5.320,5.550,201.573,173.521,200.227
0.288,27.582,5.295,5.544,201.515,173.312,200.153
0.289,27.773,5.280,5.546,201.464,173.140,200.086
0.291,27.929,5.274,5.552,201.420,173.004,200.025
0.292,28.054,5.274,5.558,201.382,172.898,199.971
0.293,28.152,5.278,5.560,201.351,172.818,199.924
0.295,28.226,5.286,5.554,201.326,172.762,199.882
0.296,28.281,5.295,5.544,201.306,172.725,199.847
0.298,28.320,5.304,5.530,201.292,172.703,199.817
0.299,28.348,5.314,5.516,201.282,172.692,199.794
0.300,28.367,5.323,5.502,201.277,172.690,199.776
0.302,28.379,5.331,5.490,201.277,172.691,199.763
0.303,28.387,5.336,5.484,201.280,172.693,199.756
0.305,28.394,5.338,5.483,201.285,172.695,199.753
0.306,28.400,5.337,5.486,201.291,172.696,199.754
0.307,28.407,5.333,5.492,201.296,172.694,199.757
0.309,28.414,5.328,5.500,201.300,172.689,199.763
0.310,28.425,5.321,5.507,201.299,172.681,199.769
0.312,28.441,5.313,5.512,201.293,172.667,199.775
0.313,28.464,5.304,5.513,201.281,172.648,199.780
0.314,28.498,5.294,5.509,201.260,172.622,199.784
0.316,28.543,5.283,5.500,201.230,172.588,199.785
0.317,28.603,5.272,5.486,201.188,172.546,199.783
0.318,28.678,5.259,5.467,201.134,172.494,199.776
0.320,28.767,5.243,5.443,201.069,172.434,199.765
0.321,28.868,5.226,5.415,200.994,172.367,199.751
0.323,28.978,5.206,5.382,200.913,172.296,199.734
0.324,29.093,5.183,5.346,200.828,172.221,199.714
0.325,29.210,5.157,5.306,200.741,172.145,199.693
0.327,29.328,5.130,5.265,200.654,172.070,199.670
0.328,29.441,5.102,5.223,200.570,171.997,199.646
0.330,29.549,5.074,5.182,200.491,171.928,199.622
0.331,29.647,5.049,5.144,200.420,171.864,199.598
0.332,29.733,5.026,5.110,200.358,171.809,199.575
0.334,29.804,5.006,5.082,200.309,171.762,199.554
0.335,29.859,4.991,5.059,200.273,171.726,199.534
0.337,29.899,4.980,5.042,200.249,171.699,199.517
0.338,29.925,4.972,5.031,200.235,171.681,199.503
0.339,29.940,4.967,5.024,200.230,171.672,199.493
0.341,29.946,4.965,5.022,200.232,171.670,199.488
0.342,29.956,4.965,5.024,200.241,171.674,199.487
0.344,29.973,4.966,5.030,200.253,171.685,199.492
0.345,29.998,4.969,5.040,200.268,171.701,199.503
0.346,30.030,4.973,5.052,200.285,171.721,199.521
0.348,30.069,4.977,5.066,200.302,171.745,199.547
0.349,30.114,4.980,5.081,200.317,171.773,199.580
0.350,30.167,4.982,5.096,200.329,171.802,199.622
0.352,30.222,4.982,5.111,200.335,171.828,199.670
0.353,30.276,4.979,5.125,200.334,171.846,199.721
0.355,30.330,4.972,5.137,200.324,171.850,199.773
0.356,30.388,4.960,5.145,200.301,171.833,199.824
0.357,30.460,4.940,5.144,200.265,171.791,199.871
0.359,30.559,4.909,5.131,200.212,171.717,199.910
0.360,30.694,4.866,5.103,200.141,171.606,199.940
0.362,30.874,4.807,5.056,200.050,171.453,199.957
0.363,31.106,4.730,4.987,199.935,171.250,199.960
0.364,31.398,4.633,4.892,199.796,170.994,199.945
0.366,31.758,4.520,4.777,199.630,170.677,199.910
0.367,32.181,4.401,4.653,199.438,170.304,199.855
0.369,32.657,4.286,4.533,199.226,169.884,199.780
0.370,33.173,4.187,4.429,199.000,169.429,199.690
0.371,33.718,4.111,4.353,198.763,168.950,199.584
0.373,34.280,4.071,4.317,198.522,168.457,199.465
0.374,34.845,4.075,4.333,198.281,167.962,199.335
0.376,35.403,4.128,4.405,198.047,167.475,199.196
0.377,35.941,4.220,4.522,197.824,167.008,199.050
0.378,36.448,4.341,4.669,197.617,166.571,198.898
0.380,36.911,4.481,4.835,197.432,166.175,198.743
0.381,37.320,4.630,5.006,197.274,165.832,198.586
0.382,37.668,4.778,5.168,197.147,165.549,198.430
0.384,37.960,4.914,5.309,197.049,165.321,198.276
0.385,38.204,5.031,5.418,196.976,165.143,198.126
0.387,38.406,5.128,5.498,196.927,165.009,197.983
0.388,38.574,5.206,5.552,196.899,164.913,197.847
0.389,38.715,5.266,5.586,196.889,164.849,197.723
0.391,38.833,5.310,5.604,196.893,164.812,197.611
0.392,38.934,5.338,5.610,196.910,164.795,197.513
0.394,39.019,5.352,5.609,196.937,164.792,197.432
0.395,39.091,5.354,5.605,196.971,164.798,197.369
0.396,39.148,5.346,5.599,197.009,164.807,197.327
0.398,39.193,5.332,5.594,197.049,164.813,197.307
0.399,39.232,5.316,5.589,197.088,164.812,197.307
0.401,39.272,5.300,5.584,197.123,164.804,197.324
0.402,39.318,5.289,5.582,197.154,164.785,197.353
0.403,39.371,5.287,5.581,197.177,164.755,197.391
0.405,39.433,5.296,5.584,197.190,164.711,197.432
0.406,39.505,5.318,5.590,197.192,164.653,197.474
0.408,39.591,5.352,5.602,197.179,164.577,197.512
0.409,39.694,5.396,5.620,197.150,164.482,197.542
0.410,39.820,5.449,5.647,197.103,164.367,197.559
0.412,39.973,5.509,5.682,197.035,164.230,197.561
0.413,40.159,5.575,5.729,196.944,164.069,197.543
0.414,40.380,5.645,5.787,196.830,163.883,197.503
0.416,40.630,5.719,5.857,196.697,163.679,197.445
0.417,40.903,5.792,5.934,196.551,163.461,197.372
0.419,41.192,5.864,6.013,196.394,163.233,197.288
0.420,41.489,5.932,6.090,196.231,163.002,197.198
0.421,41.787,5.994,6.158,196.068,162.771,197.105
0.423,42.079,6.048,6.214,195.908,162.545,197.012
0.424,42.356,6.091,6.252,195.756,162.330,196.924
0.426,42.612,6.122,6.269,195.616,162.131,196.844
0.427,42.840,6.143,6.269,195.493,161.952,196.776
0.428,43.031,6.157,6.257,195.392,161.798,196.724
0.430,43.180,6.166,6.239,195.315,161.674,196.691
0.431,43.290,6.173,6.219,195.262,161.580,196.676
0.433,43.366,6.182,6.204,195.230,161.511,196.677
0.434,43.414,6.195,6.198,195.215,161.467,196.690
0.435,43.447,6.214,6.208,195.214,161.445,196.714
0.437,43.480,6.239,6.232,195.225,161.443,196.746
0.438,43.524,6.266,6.268,195.244,161.457,196.783
0.439,43.579,6.291,6.311,195.268,161.486,196.823
0.441,43.643,6.312,6.359,195.293,161.528,196.863
0.442,43.711,6.324,6.408,195.318,161.579,196.901
0.444,43.782,6.326,6.456,195.339,161.638,196.934
0.445,43.852,6.312,6.498,195.352,161.702,196.960
0.446,43.920,6.284,6.533,195.356,161.767,196.979
0.448,43.984,6.246,6.559,195.355,161.829,196.992
0.449,44.039,6.202,6.575,195.348,161.883,197.004
0.451,44.083,6.156,6.580,195.337,161.923,197.017
0.452,44.113,6.113,6.573,195.325,161.945,197.033
0.453,44.139,6.077,6.554,195.312,161.944,197.056
0.455,44.184,6.053,6.520,195.301,161.914,197.088
0.456,44.261,6.043,6.472,195.294,161.851,197.133
0.458,44.379,6.044,6.414,195.290,161.750,197.192
0.459,44.543,6.053,6.350,195.294,161.605,197.269
0.460,44.759,6.067,6.284,195.305,161.412,197.367
0.462,45.032,6.084,6.220,195.325,161.168,197.486
0.463,45.351,6.099,6.162,195.354,160.882,197.625
0.465,45.708,6.110,6.114,195.389,160.562,197.778
0.466,46.090,6.114,6.079,195.429,160.218,197.940
0.467,46.488,6.111,6.057,195.473,159.860,198.108
0.469,46.890,6.103,6.045,195.519,159.499,198.277
0.470,47.285,6.089,6.042,195.565,159.142,198.443
0.471,47.664,6.073,6.044,195.611,158.801,198.601
0.473,48.014,6.054,6.049,195.655,158.486,198.747
0.474,48.326,6.033,6.057,195.695,158.204,198.876
0.476,48.589,6.012,6.063,195.729,157.968,198.984
0.477,48.792,5.991,6.069,195.758,157.784,199.067
0.478,48.936,5.971,6.073,195.779,157.655,199.125
0.480,49.027,5.954,6.077,195.794,157.572,199.161
0.481,49.074,5.939,6.080,195.803,157.530,199.179
0.483,49.084,5.927,6.082,195.808,157.521,199.183
0.484,49.104,5.919,6.085,195.808,157.539,199.174
0.485,49.146,5.915,6.088,195.805,157.577,199.158
0.487,49.202,5.916,6.091,195.798,157.629,199.137
0.488,49.265,5.921,6.093,195.790,157.687,199.115
0.490,49.327,5.929,6.094,195.779,157.745,199.095
0.491,49.382,5.939,6.094,195.767,157.797,199.080
0.492,49.422,5.949,6.090,195.755,157.835,199.075
0.494,49.446,5.959,6.083,195.743,157.855,199.080
0.495,49.466,5.968,6.072,195.732,157.859,199.096
0.497,49.493,5.975,6.057,195.721,157.848,199.119
0.498,49.531,5.980,6.039,195.713,157.825,199.148
0.499,49.580,5.981,6.019,195.706,157.792,199.183
0.501,49.636,5.979,5.999,195.702,157.751,199.220
0.502,49.697,5.973,5.980,195.701,157.703,199.259
0.503,49.762,5.963,5.963,195.704,157.651,199.298
0.505,49.828,5.948,5.950,195.711,157.597,199.335
0.506,49.893,5.927,5.942,195.723,157.543,199.369
0.508,49.954,5.904,5.939,195.740,157.491,199.398
0.509,50.012,5.878,5.939,195.762,157.443,199.420
0.510,50.068,5.854,5.941,195.789,157.396,199.436
0.512,50.126,5.833,5.945,195.819,157.349,199.447
0.513,50.187,5.817,5.948,195.850,157.297,199.455
0.515,50.254,5.808,5.951,195.882,157.238,199.460
0.516,50.329,5.809,5.952,195.912,157.169,199.464
0.517,50.416,5.818,5.951,195.940,157.087,199.467
0.519,50.517,5.832,5.946,195.963,156.989,199.472
0.520,50.636,5.847,5.937,195.980,156.871,199.479
0.522,50.776,5.861,5.923,195.990,156.732,199.489
0.523,50.942,5.869,5.905,195.991,156.566,199.504
0.524,51.136,5.868,5.880,195.981,156.373,199.525
0.526,51.360,5.855,5.850,195.961,156.152,199.551
0.527,51.607,5.829,5.814,195.933,155.908,199.583
0.529,51.873,5.794,5.774,195.896,155.648,199.620
0.530,52.152,5.753,5.734,195.854,155.375,199.659
0.531,52.438,5.711,5.695,195.808,155.096,199.701
0.533,52.725,5.672,5.661,195.758,154.817,199.744
0.534,53.007,5.638,5.634,195.708,154.542,199.787
0.535,53.280,5.616,5.616,195.658,154.277,199.830
0.537,53.537,5.606,5.609,195.610,154.028,199.871
0.538,53.772,5.607,5.612,195.566,153.800,199.910
0.540,53.980,5.617,5.622,195.527,153.599,199.944
0.541,54.156,5.633,5.637,195.495,153.429,199.975
0.542,54.303,5.652,5.655,195.469,153.287,200.002
0.544,54.424,5.672,5.673,195.448,153.171,200.025
0.545,54.521,5.690,5.690,195.431,153.076,200.046
0.547,54.600,5.703,5.703,195.419,153.001,200.064
0.548,54.664,5.713,5.712,195.409,152.940,200.082
0.549,54.717,5.719,5.718,195.402,152.891,200.099
0.551,54.761,5.722,5.721,195.396,152.850,200.116
0.552,54.801,5.724,5.723,195.392,152.815,200.134
0.554,54.841,5.724,5.724,195.387,152.780,200.154
0.555,54.884,5.725,5.725,195.381,152.744,200.176
0.556,54.933,5.726,5.726,195.374,152.702,200.201
0.558,54.990,5.728,5.728,195.366,152.653,200.228
0.559,55.051,5.731,5.730,195.356,152.600,200.258
0.561,55.117,5.734,5.734,195.345,152.543,200.289
0.562,55.186,5.738,5.738,195.334,152.484,200.321
0.563,55.255,5.743,5.742,195.322,152.424,200.354
0.565,55.325,5.748,5.747,195.310,152.364,200.386
0.566,55.392,5.753,5.753,195.299,152.305,200.417
0.567,55.456,5.758,5.759,195.288,152.249,200.447
