"T","Distance","Radius","FreeRadius","X","Y","Z"
0.000,0.000,2.745,2.745,211.841,188.875,180.238
0.001,0.289,2.883,2.883,212.026,188.704,180.379
0.003,0.575,3.020,3.020,212.210,188.535,180.518
0.004,0.858,3.153,3.153,212.392,188.368,180.655
0.005,1.134,3.281,3.281,212.571,188.205,180.788
0.007,1.402,3.403,3.403,212.747,188.047,180.915
0.008,1.660,3.517,3.517,212.917,187.895,181.036
0.009,1.906,3.622,3.622,213.081,187.751,181.149
0.010,2.138,3.715,3.715,213.239,187.616,181.252
0.012,2.354,3.796,3.796,213.388,187.491,181.344
0.013,2.552,3.867,3.867,213.529,187.377,181.425
0.014,2.730,3.929,3.929,213.659,187.275,181.492
0.016,2.887,3.984,3.984,213.779,187.188,181.544
0.017,3.024,4.033,4.033,213.888,187.114,181.582
0.018,3.143,4.077,4.077,213.987,187.052,181.607
0.020,3.247,4.120,4.120,214.076,187.002,181.622
0.021,3.337,4.161,4.161,214.156,186.962,181.627
0.022,3.415,4.201,4.201,214.228,186.931,181.625
0.024,3.485,4.240,4.240,214.293,186.907,181.618
0.025,3.546,4.277,4.277,214.352,186.890,181.607
0.026,3.602,4.312,4.312,214.404,186.879,181.593
0.027,3.651,4.344,4.344,214.451,186.872,181.580
0.029,3.696,4.372,4.372,214.494,186.867,181.568
0.030,3.735,4.396,4.396,214.532,186.865,181.559
0.031,3.771,4.415,4.415,214.568,186.863,181.555
0.033,3.803,4.430,4.430,214.600,186.863,181.555
0.034,3.832,4.441,4.441,214.629,186.863,181.558
0.035,3.858,4.448,4.448,214.654,186.863,181.564
0.037,3.882,4.452,4.452,214.676,186.865,181.572
0.038,3.903,4.453,4.453,214.695,186.866,181.581
0.039,3.921,4.451,4.451,214.710,186.869,181.592
0.041,3.937,4.447,4.447,214.721,186.872,181.602
0.042,3.950,4.442,4.442,214.729,186.875,181.613
0.043,3.961,4.435,4.435,214.732,186.879,181.622
0.044,3.970,4.428,4.428,214.733,186.883,181.630
0.046,3.978,4.421,4.421,214.729,186.888,181.635
0.047,3.987,4.413,4.413,214.722,186.893,181.639
0.048,3.996,4.407,4.407,214.714,186.897,181.641
0.050,4.005,4.402,4.402,214.707,186.900,181.642
0.051,4.012,4.399,4.399,214.700,186.902,181.641
0.052,4.016,4.399,4.399,214.696,186.903,181.641
0.054,4.017,4.400,4.400,214.696,186.901,181.640
0.055,4.024,4.404,4.404,214.702,186.897,181.640
0.056,4.039,4.411,4.411,214.714,186.890,181.640
0.058,4.062,4.420,4.420,214.735,186.880,181.642
0.059,4.096,4.432,4.432,214.766,186.866,181.646
0.060,4.141,4.446,4.446,214.807,186.848,181.651
0.061,4.199,4.464,4.464,214.860,186.826,181.658
0.063,4.266,4.483,4.483,214.922,186.801,181.668
0.064,4.341,4.504,4.504,214.991,186.773,181.678
0.065,4.422,4.525,4.525,215.064,186.743,181.690
0.067,4.505,4.545,4.545,215.141,186.713,181.702
0.068,4.590,4.563,4.563,215.219,186.682,181.715
0.069,4.673,4.578,4.578,215.296,186.651,181.727
0.071,4.753,4.588,4.588,215.369,186.622,181.739
0.072,4.827,4.593,4.593,215.436,186.595,181.751
0.073,4.892,4.594,4.594,215.497,186.571,181.761
0.075,4.947,4.592,4.592,215.547,186.551,181.769
0.076,4.991,4.587,4.587,215.587,186.535,181.776
0.077,5.023,4.582,4.582,215.616,186.524,181.781
0.078,5.047,4.577,4.577,215.639,186.516,181.785
0.080,5.064,4.573,4.573,215.656,186.513,181.789
0.081,5.079,4.572,4.572,215.670,186.514,181.792
0.082,5.095,4.575,4.575,215.684,186.518,181.797
0.084,5.113,4.580,4.580,215.700,186.526,181.802
0.085,5.137,4.588,4.588,215.720,186.538,181.809
0.086,5.169,4.598,4.598,215.747,186.553,181.819
0.088,5.211,4.610,4.610,215.782,186.571,181.831
0.089,5.264,4.622,4.622,215.829,186.592,181.847
0.090,5.332,4.635,4.635,215.889,186.616,181.866
0.092,5.413,4.648,4.648,215.962,186.642,181.889
0.093,5.505,4.660,4.660,216.045,186.671,181.915
0.094,5.605,4.671,4.671,216.137,186.700,181.943
0.095,5.710,4.680,4.680,216.233,186.731,181.973
0.097,5.817,4.687,4.687,216.331,186.761,182.003
0.098,5.923,4.692,4.692,216.428,186.791,182.034
0.099,6.026,4.693,4.693,216.522,186.819,182.063
0.101,6.121,4.691,4.691,216.609,186.846,182.091
0.102,6.207,4.685,4.685,216.687,186.871,182.117
0.103,6.279,4.676,4.676,216.752,186.892,182.140
0.105,6.336,4.665,4.665,216.803,186.910,182.159
0.106,6.376,4.652,4.652,216.837,186.924,182.173
0.107,6.401,4.640,4.640,216.857,186.935,182.184
0.108,6.414,4.630,4.630,216.865,186.942,182.192
0.110,6.420,4.622,4.622,216.864,186.946,182.197
0.111,6.427,4.618,4.618,216.858,186.947,182.200
0.112,6.437,4.618,4.618,216.848,186.945,182.201
0.114,6.447,4.622,4.622,216.839,186.941,182.202
0.115,6.456,4.627,4.627,216.832,186.936,182.203
0.116,6.463,4.631,4.631,216.831,186.929,182.204
0.118,6.474,4.634,4.634,216.839,186.921,182.206
0.119,6.496,4.631,4.631,216.858,186.912,182.210
0.120,6.531,4.623,4.623,216.891,186.903,182.217
0.122,6.581,4.606,4.606,216.940,186.893,182.225
0.123,6.647,4.581,4.581,217.004,186.881,182.234
0.124,6.728,4.548,4.548,217.083,186.868,182.244
0.125,6.824,4.510,4.510,217.177,186.852,182.252
0.127,6.935,4.469,4.469,217.287,186.833,182.259
0.128,7.062,4.425,4.425,217.411,186.811,182.264
0.129,7.204,4.381,4.381,217.551,186.785,182.265
0.131,7.362,4.338,4.338,217.706,186.754,182.263
0.132,7.535,4.298,4.298,217.876,186.718,182.254
0.133,7.725,4.263,4.263,218.060,186.676,182.240
0.135,7.931,4.232,4.232,218.260,186.628,182.220
0.136,8.153,4.205,4.205,218.473,186.574,182.191
0.137,8.387,4.184,4.184,218.696,186.516,182.156
0.139,8.628,4.168,4.168,218.925,186.454,182.114
0.140,8.872,4.158,4.158,219.156,186.390,182.066
0.141,9.116,4.153,4.153,219.385,186.326,182.013
0.142,9.354,4.155,4.155,219.608,186.263,181.954
0.144,9.584,4.162,4.162,219.821,186.203,181.890
0.145,9.802,4.174,4.174,220.019,186.147,181.823
0.146,10.002,4.189,4.189,220.200,186.097,181.751
0.148,10.183,4.208,4.208,220.358,186.054,181.676
0.149,10.340,4.228,4.228,220.491,186.020,181.598
0.150,10.473,4.249,4.249,220.594,185.996,181.518
0.152,10.586,4.270,4.270,220.672,185.981,181.438
0.153,10.682,4.290,4.290,220.730,185.973,181.362
0.154,10.765,4.308,4.308,220.776,185.971,181.293
0.156,10.836,4.324,4.324,220.816,185.972,181.234
0.157,10.896,4.335,4.335,220.855,185.975,181.189
0.158,10.949,4.342,4.342,220.901,185.979,181.161
0.159,11.009,4.344,4.344,220.960,185.981,181.154
0.161,11.088,4.338,4.338,221.038,185.979,181.170
0.162,11.201,4.326,4.326,221.141,185.972,181.214
0.163,11.356,4.307,4.307,221.277,185.959,181.289
0.165,11.562,4.286,4.286,221.450,185.936,181.397
0.166,11.819,4.267,4.267,221.663,185.905,181.538
0.167,12.118,4.256,4.256,221.907,185.866,181.707
0.169,12.451,4.256,4.256,222.176,185.820,181.898
0.170,12.807,4.272,4.272,222.461,185.771,182.104
0.171,13.177,4.308,4.308,222.757,185.718,182.321
0.173,13.551,4.369,4.369,223.054,185.664,182.541
0.174,13.920,4.452,4.452,223.346,185.610,182.760
0.175,14.274,4.551,4.551,223.626,185.558,182.971
0.176,14.604,4.660,4.660,223.886,185.509,183.168
0.178,14.900,4.771,4.771,224.118,185.465,183.346
0.179,15.152,4.878,4.878,224.316,185.427,183.498
0.180,15.354,4.975,4.975,224.473,185.396,183.621
0.182,15.507,5.055,5.055,224.592,185.373,183.715
0.183,15.619,5.113,5.113,224.678,185.356,183.784
0.184,15.693,5.150,5.150,224.734,185.345,183.832
0.186,15.737,5.171,5.171,224.765,185.338,183.862
0.187,15.755,5.178,5.178,224.775,185.336,183.876
0.188,15.762,5.176,5.176,224.769,185.336,183.879
0.190,15.781,5.169,5.169,224.751,185.339,183.874
0.191,15.809,5.160,5.160,224.725,185.344,183.864
0.192,15.841,5.153,5.153,224.696,185.350,183.853
0.193,15.871,5.151,5.151,224.668,185.355,183.843
0.195,15.895,5.153,5.154,224.645,185.360,183.838
0.196,15.912,5.159,5.159,224.628,185.364,183.839
0.197,15.925,5.167,5.167,224.618,185.366,183.846
0.199,15.938,5.176,5.177,224.613,185.368,183.857
0.200,15.954,5.187,5.187,224.612,185.368,183.873
0.201,15.974,5.196,5.197,224.616,185.367,183.893
0.203,15.998,5.205,5.205,224.623,185.365,183.916
0.204,16.025,5.212,5.212,224.632,185.361,183.941
0.205,16.055,5.218,5.218,224.644,185.356,183.968
0.207,16.086,5.223,5.222,224.657,185.350,183.996
0.208,16.119,5.226,5.225,224.670,185.342,184.025
0.209,16.152,5.228,5.227,224.684,185.333,184.054
0.210,16.185,5.229,5.229,224.697,185.322,184.082
0.212,16.219,5.230,5.230,224.710,185.310,184.111
0.213,16.254,5.230,5.230,224.723,185.295,184.139
0.214,16.290,5.229,5.230,224.736,185.278,184.169
0.216,16.329,5.228,5.230,224.751,185.259,184.199
0.217,16.371,5.228,5.230,224.767,185.236,184.231
0.218,16.417,5.228,5.231,224.784,185.211,184.265
0.220,16.468,5.230,5.232,224.804,185.182,184.301
0.221,16.523,5.233,5.234,224.827,185.149,184.340
0.222,16.584,5.238,5.238,224.852,185.112,184.382
0.224,16.652,5.245,5.243,224.880,185.071,184.427
0.225,16.726,5.254,5.249,224.913,185.026,184.476
0.226,16.807,5.264,5.256,224.949,184.976,184.529
0.227,16.894,5.275,5.265,224.988,184.922,184.585
0.229,16.987,5.286,5.276,225.030,184.865,184.645
0.230,17.085,5.297,5.288,225.075,184.804,184.707
0.231,17.188,5.306,5.302,225.122,184.740,184.772
0.233,17.295,5.315,5.317,225.172,184.673,184.840
0.234,17.406,5.322,5.334,225.223,184.603,184.909
0.235,17.520,5.328,5.352,225.276,184.532,184.981
0.237,17.637,5.335,5.372,225.331,184.458,185.054
0.238,17.756,5.344,5.393,225.386,184.383,185.128
0.239,17.877,5.355,5.416,225.442,184.307,185.203
0.241,18.000,5.369,5.439,225.498,184.230,185.280
0.242,18.124,5.388,5.464,225.554,184.151,185.358
0.243,18.248,5.412,5.489,225.608,184.071,185.437
0.244,18.374,5.442,5.515,225.660,183.991,185.518
0.246,18.501,5.474,5.542,225.708,183.908,185.602
0.247,18.629,5.507,5.568,225.752,183.825,185.688
0.248,18.758,5.540,5.594,225.791,183.740,185.778
0.250,18.889,5.571,5.619,225.824,183.654,185.870
0.251,19.022,5.598,5.643,225.850,183.566,185.967
0.252,19.157,5.618,5.664,225.869,183.477,186.067
0.254,19.296,5.632,5.683,225.879,183.386,186.171
0.255,19.439,5.639,5.700,225.879,183.294,186.280
0.256,19.585,5.640,5.714,225.871,183.201,186.392
0.258,19.732,5.637,5.725,225.856,183.108,186.506
0.259,19.879,5.633,5.732,225.834,183.016,186.618
0.260,20.024,5.627,5.736,225.808,182.925,186.728
0.261,20.165,5.621,5.736,225.777,182.838,186.834
0.263,20.299,5.618,5.731,225.744,182.754,186.934
0.264,20.426,5.618,5.723,225.709,182.675,187.026
0.265,20.542,5.620,5.712,225.674,182.602,187.109
0.267,20.645,5.625,5.699,225.639,182.534,187.179
0.268,20.734,5.633,5.687,225.607,182.474,187.237
0.269,20.808,5.642,5.677,225.577,182.423,187.279
0.271,20.865,5.652,5.670,225.552,182.379,187.307
0.272,20.909,5.663,5.668,225.530,182.344,187.324
0.273,20.942,5.675,5.673,225.514,182.318,187.332
0.275,20.964,5.687,5.685,225.503,182.299,187.336
0.276,20.977,5.699,5.702,225.497,182.287,187.338
0.277,20.982,5.709,5.722,225.498,182.283,187.342
0.278,20.994,5.717,5.744,225.505,182.286,187.351
0.280,21.018,5.723,5.764,225.519,182.296,187.368
0.281,21.058,5.725,5.781,225.540,182.313,187.396
0.282,21.115,5.723,5.794,225.569,182.337,187.439
0.284,21.192,5.717,5.800,225.606,182.366,187.500
0.285,21.291,5.706,5.799,225.652,182.401,187.581
0.286,21.410,5.691,5.792,225.704,182.441,187.679
0.288,21.542,5.674,5.779,225.762,182.485,187.791
0.289,21.686,5.654,5.761,225.823,182.531,187.912
0.290,21.836,5.633,5.740,225.887,182.578,188.039
0.292,21.988,5.612,5.714,225.951,182.625,188.169
0.293,22.138,5.591,5.686,226.015,182.670,188.297
0.294,22.282,5.571,5.657,226.075,182.713,188.420
0.295,22.415,5.552,5.626,226.131,182.752,188.535
0.297,22.534,5.536,5.596,226.182,182.786,188.637
0.298,22.634,5.521,5.567,226.225,182.814,188.723
0.299,22.712,5.509,5.541,226.259,182.835,188.790
0.301,22.768,5.500,5.519,226.285,182.849,188.837
0.302,22.805,5.495,5.502,226.303,182.856,188.869
0.303,22.826,5.492,5.491,226.316,182.858,188.886
0.305,22.837,5.494,5.487,226.323,182.857,188.894
0.306,22.843,5.498,5.489,226.328,182.852,188.893
0.307,22.852,5.504,5.494,226.330,182.846,188.889
0.308,22.862,5.510,5.502,226.331,182.839,188.882
0.310,22.871,5.516,5.510,226.334,182.832,188.877
0.311,22.878,5.521,5.518,226.338,182.826,188.875
0.312,22.888,5.524,5.523,226.345,182.823,188.881
0.314,22.908,5.523,5.524,226.358,182.823,188.897
0.315,22.940,5.518,5.520,226.376,182.828,188.924
0.316,22.986,5.508,5.511,226.400,182.834,188.961
0.318,23.043,5.493,5.495,226.432,182.840,189.008
0.319,23.110,5.470,5.472,226.471,182.845,189.063
0.320,23.188,5.441,5.442,226.519,182.847,189.125
0.322,23.276,5.404,5.405,226.575,182.843,189.191
0.323,23.373,5.358,5.358,226.641,182.832,189.262
0.324,23.480,5.303,5.303,226.718,182.813,189.335
0.325,23.598,5.239,5.239,226.805,182.783,189.409
0.327,23.729,5.167,5.167,226.903,182.740,189.483
0.328,23.872,5.087,5.088,227.013,182.683,189.556
0.329,24.031,5.002,5.003,227.136,182.611,189.626
0.331,24.203,4.911,4.913,227.269,182.525,189.692
0.332,24.384,4.816,4.817,227.408,182.428,189.756
0.333,24.570,4.718,4.718,227.550,182.323,189.815
0.335,24.758,4.617,4.616,227.692,182.213,189.870
0.336,24.942,4.518,4.514,227.831,182.103,189.920
0.337,25.119,4.422,4.416,227.962,181.993,189.966
0.339,25.284,4.332,4.325,228.083,181.889,190.007
0.340,25.433,4.253,4.245,228.191,181.792,190.042
0.341,25.561,4.186,4.179,228.280,181.706,190.071
0.342,25.663,4.135,4.132,228.350,181.635,190.095
0.344,25.736,4.104,4.105,228.395,181.580,190.112
0.345,25.781,4.091,4.100,228.417,181.542,190.123
0.346,25.808,4.090,4.109,228.423,181.517,190.130
0.348,25.825,4.096,4.124,228.419,181.501,190.133
0.349,25.839,4.100,4.138,228.412,181.489,190.135
0.350,25.852,4.096,4.142,228.410,181.476,190.137
0.352,25.872,4.077,4.130,228.418,181.458,190.141
0.353,25.911,4.036,4.093,228.444,181.431,190.147
0.354,25.977,3.967,4.023,228.495,181.390,190.157
0.356,26.080,3.872,3.923,228.578,181.331,190.173
0.357,26.229,3.757,3.800,228.700,181.249,190.196
0.358,26.431,3.631,3.665,228.867,181.139,190.228
0.359,26.692,3.502,3.527,229.085,181.000,190.269
0.361,27.009,3.378,3.393,229.348,180.832,190.319
0.362,27.372,3.268,3.275,229.650,180.640,190.375
0.363,27.773,3.179,3.180,229.985,180.427,190.436
0.365,28.205,3.119,3.117,230.345,180.196,190.500
0.366,28.660,3.089,3.087,230.723,179.953,190.565
0.367,29.129,3.088,3.088,231.113,179.699,190.630
0.369,29.605,3.115,3.117,231.507,179.440,190.692
0.370,30.080,3.168,3.172,231.899,179.178,190.749
0.371,30.546,3.246,3.252,232.281,178.917,190.801
0.373,30.995,3.349,3.353,232.648,178.661,190.844
0.374,31.419,3.475,3.474,232.991,178.414,190.878
0.375,31.816,3.621,3.612,233.309,178.177,190.902
0.376,32.186,3.782,3.763,233.603,177.952,190.916
0.378,32.530,3.952,3.923,233.873,177.740,190.923
0.379,32.848,4.123,4.087,234.121,177.542,190.923
0.380,33.140,4.289,4.252,234.348,177.358,190.917
0.382,33.407,4.444,4.413,234.555,177.190,190.906
0.383,33.649,4.581,4.565,234.743,177.038,190.891
0.384,33.867,4.694,4.705,234.913,176.903,190.873
0.386,34.060,4.780,4.831,235.067,176.787,190.853
0.387,34.230,4.844,4.941,235.205,176.690,190.833
0.388,34.377,4.891,5.037,235.328,176.613,190.812
0.390,34.502,4.924,5.118,235.438,176.557,190.793
0.391,34.608,4.949,5.186,235.536,176.519,190.774
0.392,34.699,4.970,5.240,235.622,176.496,190.757
0.393,34.778,4.992,5.280,235.699,176.488,190.741
0.395,34.848,5.019,5.308,235.767,176.491,190.726
0.396,34.911,5.052,5.324,235.828,176.502,190.713
0.397,34.970,5.089,5.331,235.882,176.520,190.702
0.399,35.024,5.128,5.331,235.931,176.542,190.692
0.400,35.076,5.168,5.327,235.976,176.566,190.684
0.401,35.124,5.206,5.321,236.018,176.590,190.677
0.403,35.170,5.242,5.315,236.059,176.610,190.673
0.404,35.212,5.272,5.312,236.099,176.625,190.670
0.405,35.253,5.297,5.314,236.138,176.635,190.670
0.407,35.292,5.315,5.321,236.176,176.639,190.670
0.408,35.329,5.328,5.331,236.214,176.640,190.673
0.409,35.366,5.338,5.345,236.250,176.637,190.676
0.410,35.401,5.344,5.360,236.285,176.631,190.680
0.412,35.435,5.349,5.376,236.317,176.623,190.685
0.413,35.467,5.352,5.392,236.347,176.614,190.690
0.414,35.497,5.356,5.407,236.375,176.604,190.695
0.416,35.524,5.360,5.421,236.400,176.594,190.700
0.417,35.548,5.364,5.434,236.421,176.584,190.704
0.418,35.568,5.369,5.444,236.439,176.576,190.708
0.420,35.583,5.373,5.453,236.453,176.570,190.711
0.421,35.596,5.378,5.460,236.464,176.565,190.713
0.422,35.605,5.383,5.466,236.473,176.562,190.715
0.424,35.611,5.387,5.469,236.478,176.560,190.716
0.425,35.615,5.390,5.471,236.482,176.559,190.717
0.426,35.617,5.393,5.471,236.484,176.559,190.718
0.427,35.619,5.395,5.470,236.485,176.560,190.718
0.429,35.621,5.397,5.467,236.485,176.562,190.719
0.430,35.623,5.398,5.464,236.485,176.564,190.721
0.431,35.626,5.399,5.461,236.485,176.566,190.722
0.433,35.630,5.399,5.459,236.485,176.569,190.724
0.434,35.634,5.400,5.457,236.485,176.572,190.727
0.435,35.639,5.400,5.456,236.488,176.574,190.731
0.437,35.646,5.400,5.456,236.493,176.577,190.736
0.438,35.655,5.401,5.457,236.500,176.579,190.741
0.439,35.668,5.403,5.458,236.512,176.581,190.747
0.441,35.686,5.405,5.460,236.528,176.583,190.754
0.442,35.709,5.408,5.462,236.549,176.585,190.762
0.443,35.738,5.413,5.464,236.576,176.586,190.771
0.444,35.773,5.420,5.466,236.610,176.586,190.781
0.446,35.816,5.428,5.468,236.652,176.586,190.792
0.447,35.868,5.438,5.470,236.702,176.586,190.804
0.448,35.928,5.449,5.473,236.761,176.585,190.817
0.450,35.997,5.461,5.477,236.829,176.583,190.831
0.451,36.073,5.475,5.484,236.904,176.581,190.845
0.452,36.155,5.489,5.494,236.984,176.577,190.858
0.454,36.240,5.503,5.508,237.068,176.573,190.870
0.455,36.328,5.518,5.525,237.155,176.567,190.879
0.456,36.416,5.532,5.548,237.243,176.560,190.887
0.458,36.503,5.547,5.573,237.329,176.552,190.890
0.459,36.587,5.561,5.601,237.413,176.543,190.889
0.460,36.668,5.574,5.630,237.493,176.532,190.884
0.461,36.744,5.587,5.659,237.568,176.520,190.873
0.463,36.815,5.599,5.686,237.635,176.506,190.855
0.464,36.881,5.609,5.711,237.694,176.491,190.831
0.465,36.943,5.618,5.733,237.746,176.474,190.801
0.467,37.005,5.626,5.751,237.793,176.455,190.766
0.468,37.066,5.633,5.766,237.837,176.435,190.728
0.469,37.129,5.639,5.780,237.879,176.413,190.688
0.471,37.193,5.643,5.792,237.922,176.389,190.647
0.472,37.259,5.647,5.804,237.968,176.363,190.606
0.473,37.328,5.651,5.817,238.018,176.337,190.567
0.475,37.401,5.655,5.831,238.073,176.308,190.530
0.476,37.479,5.658,5.848,238.137,176.278,190.497
0.477,37.564,5.662,5.866,238.211,176.246,190.469
0.478,37.658,5.668,5.886,238.296,176.213,190.447
0.480,37.761,5.677,5.907,238.392,176.178,190.431
0.481,37.873,5.689,5.928,238.498,176.143,190.421
0.482,37.991,5.707,5.949,238.611,176.106,190.417
0.484,38.115,5.731,5.970,238.729,176.070,190.419
0.485,38.243,5.762,5.989,238.851,176.033,190.425
0.486,38.372,5.800,6.007,238.975,175.997,190.436
0.488,38.501,5.844,6.023,239.098,175.962,190.451
0.489,38.629,5.891,6.038,239.219,175.928,190.470
0.490,38.753,5.940,6.052,239.337,175.895,190.493
0.492,38.871,5.987,6.065,239.448,175.864,190.518
0.493,38.983,6.032,6.077,239.552,175.836,190.547
0.494,39.085,6.071,6.089,239.647,175.809,190.577
0.495,39.179,6.102,6.100,239.731,175.786,190.610
0.497,39.264,6.126,6.111,239.807,175.766,190.643
0.498,39.339,6.141,6.122,239.872,175.748,190.676
0.499,39.404,6.151,6.131,239.926,175.735,190.709
0.501,39.459,6.156,6.140,239.971,175.725,190.740
0.502,39.504,6.156,6.147,240.004,175.720,190.769
0.503,39.538,6.155,6.152,240.026,175.719,190.795
0.505,39.563,6.151,6.155,240.038,175.723,190.817
0.506,39.583,6.147,6.155,240.037,175.731,190.835
0.507,39.606,6.143,6.153,240.025,175.745,190.848
0.508,39.637,6.139,6.150,240.001,175.764,190.855
0.510,39.677,6.135,6.144,239.968,175.787,190.857
0.511,39.721,6.131,6.138,239.931,175.811,190.855
0.512,39.766,6.126,6.131,239.894,175.835,190.850
0.514,39.805,6.122,6.124,239.860,175.854,190.843
0.515,39.835,6.117,6.117,239.835,175.868,190.836
0.516,39.850,6.111,6.110,239.823,175.874,190.829
0.518,39.858,6.107,6.106,239.827,175.870,190.824
0.519,39.889,6.106,6.105,239.852,175.853,190.821
0.520,39.949,6.110,6.109,239.902,175.820,190.823
0.522,40.043,6.119,6.119,239.982,175.770,190.829
0.523,40.177,6.136,6.137,240.096,175.700,190.842
0.524,40.351,6.162,6.165,240.243,175.611,190.861
0.525,40.556,6.199,6.203,240.417,175.505,190.885
0.527,40.786,6.248,6.252,240.613,175.387,190.914
0.528,41.034,6.306,6.310,240.822,175.259,190.946
0.529,41.291,6.371,6.375,241.040,175.127,190.980
0.531,41.550,6.440,6.444,241.258,174.992,191.014
0.532,41.803,6.511,6.514,241.472,174.860,191.049
0.533,42.043,6.581,6.583,241.674,174.734,191.082
