"T","Distance","Radius","FreeRadius","X","Y","Z"
0.000,0.000,2.608,2.608,77.171,-50.159,-0.988
0.001,0.430,2.730,2.730,76.875,-50.158,-1.300
0.003,0.856,2.851,2.851,76.582,-50.158,-1.610
0.004,1.276,2.971,2.971,76.293,-50.158,-1.915
0.005,1.685,3.088,3.088,76.013,-50.158,-2.212
0.006,2.081,3.201,3.201,75.741,-50.158,-2.500
0.008,2.458,3.310,3.310,75.483,-50.157,-2.776
0.009,2.816,3.414,3.414,75.239,-50.156,-3.037
0.010,3.149,3.512,3.512,75.012,-50.156,-3.281
0.011,3.454,3.603,3.603,74.805,-50.155,-3.505
0.013,3.728,3.686,3.686,74.621,-50.154,-3.707
0.014,3.967,3.763,3.763,74.461,-50.152,-3.886
0.015,4.169,3.834,3.834,74.328,-50.151,-4.037
0.016,4.328,3.897,3.897,74.225,-50.149,-4.159
0.018,4.447,3.954,3.954,74.151,-50.147,-4.251
0.019,4.527,4.004,4.004,74.104,-50.145,-4.317
0.020,4.576,4.048,4.048,74.078,-50.143,-4.358
0.022,4.598,4.085,4.085,74.071,-50.142,-4.379
0.023,4.605,4.116,4.116,74.077,-50.142,-4.382
0.024,4.624,4.141,4.141,74.092,-50.144,-4.370
0.025,4.656,4.159,4.159,74.113,-50.147,-4.346
0.027,4.695,4.171,4.171,74.135,-50.151,-4.314
0.028,4.738,4.176,4.176,74.155,-50.158,-4.277
0.029,4.780,4.175,4.175,74.167,-50.167,-4.237
0.030,4.821,4.168,4.168,74.168,-50.179,-4.198
0.032,4.862,4.156,4.156,74.155,-50.194,-4.163
0.033,4.909,4.139,4.139,74.122,-50.212,-4.135
0.034,4.969,4.122,4.122,74.070,-50.234,-4.115
0.036,5.042,4.107,4.107,74.002,-50.260,-4.105
0.037,5.129,4.095,4.095,73.921,-50.293,-4.106
0.038,5.228,4.091,4.091,73.831,-50.333,-4.118
0.039,5.338,4.095,4.095,73.735,-50.380,-4.143
0.041,5.457,4.111,4.111,73.637,-50.435,-4.181
0.042,5.587,4.141,4.141,73.539,-50.501,-4.234
0.043,5.726,4.184,4.184,73.445,-50.577,-4.303
0.044,5.875,4.239,4.239,73.358,-50.664,-4.388
0.046,6.038,4.308,4.308,73.281,-50.764,-4.491
0.047,6.215,4.388,4.388,73.218,-50.877,-4.611
0.048,6.410,4.479,4.479,73.172,-51.005,-4.752
0.049,6.626,4.582,4.582,73.145,-51.147,-4.912
0.051,6.862,4.695,4.695,73.137,-51.302,-5.089
0.052,7.114,4.817,4.817,73.145,-51.467,-5.280
0.053,7.379,4.944,4.944,73.166,-51.638,-5.481
0.055,7.652,5.070,5.070,73.198,-51.813,-5.688
0.056,7.928,5.193,5.193,73.238,-51.989,-5.898
0.057,8.202,5.306,5.306,73.283,-52.162,-6.106
0.058,8.470,5.406,5.406,73.331,-52.329,-6.308
0.060,8.725,5.488,5.488,73.379,-52.488,-6.503
0.061,8.964,5.547,5.547,73.424,-52.636,-6.684
0.062,9.180,5.582,5.582,73.465,-52.769,-6.850
0.063,9.369,5.597,5.597,73.498,-52.884,-6.995
0.065,9.525,5.598,5.598,73.521,-52.979,-7.117
0.066,9.646,5.589,5.589,73.532,-53.051,-7.214
0.067,9.735,5.577,5.577,73.533,-53.103,-7.286
0.069,9.796,5.566,5.566,73.524,-53.136,-7.337
0.070,9.836,5.562,5.562,73.508,-53.154,-7.369
0.071,9.862,5.570,5.570,73.487,-53.157,-7.384
0.072,9.890,5.592,5.592,73.461,-53.148,-7.386
0.074,9.925,5.625,5.625,73.432,-53.130,-7.376
0.075,9.969,5.665,5.665,73.402,-53.105,-7.356
0.076,10.018,5.709,5.709,73.373,-53.075,-7.330
0.077,10.071,5.752,5.752,73.346,-53.041,-7.300
0.079,10.123,5.792,5.792,73.322,-53.008,-7.269
0.080,10.171,5.825,5.825,73.304,-52.976,-7.238
0.081,10.212,5.847,5.847,73.292,-52.947,-7.210
0.082,10.246,5.856,5.856,73.287,-52.924,-7.186
0.084,10.272,5.855,5.855,73.287,-52.905,-7.168
0.085,10.292,5.846,5.846,73.292,-52.891,-7.155
0.086,10.306,5.831,5.831,73.298,-52.882,-7.147
0.088,10.316,5.813,5.813,73.306,-52.876,-7.144
0.089,10.324,5.794,5.794,73.313,-52.875,-7.148
0.090,10.334,5.777,5.777,73.318,-52.877,-7.157
0.091,10.351,5.764,5.764,73.320,-52.883,-7.172
0.093,10.375,5.756,5.756,73.316,-52.893,-7.194
0.094,10.408,5.751,5.751,73.305,-52.906,-7.223
0.095,10.451,5.748,5.748,73.287,-52.921,-7.258
0.096,10.506,5.745,5.745,73.258,-52.940,-7.301
0.098,10.572,5.741,5.741,73.219,-52.961,-7.351
0.099,10.651,5.735,5.735,73.170,-52.984,-7.407
0.100,10.738,5.724,5.724,73.112,-53.009,-7.468
0.102,10.832,5.707,5.707,73.048,-53.035,-7.532
0.103,10.931,5.684,5.684,72.980,-53.062,-7.598
0.104,11.032,5.657,5.657,72.910,-53.090,-7.665
0.105,11.132,5.627,5.627,72.839,-53.117,-7.730
0.107,11.230,5.595,5.595,72.769,-53.143,-7.794
0.108,11.323,5.564,5.564,72.703,-53.169,-7.853
0.109,11.407,5.533,5.533,72.642,-53.193,-7.907
0.110,11.482,5.506,5.506,72.589,-53.214,-7.955
0.112,11.544,5.484,5.484,72.545,-53.234,-7.994
0.113,11.591,5.467,5.467,72.512,-53.250,-8.023
0.114,11.622,5.454,5.454,72.491,-53.263,-8.042
0.115,11.639,5.446,5.446,72.481,-53.272,-8.052
0.117,11.645,5.441,5.441,72.480,-53.278,-8.055
0.118,11.652,5.440,5.440,72.486,-53.280,-8.052
0.119,11.664,5.441,5.441,72.496,-53.280,-8.045
0.121,11.679,5.445,5.445,72.508,-53.276,-8.037
0.122,11.696,5.450,5.450,72.520,-53.269,-8.029
0.123,11.712,5.456,5.456,72.531,-53.258,-8.023
0.124,11.727,5.461,5.461,72.538,-53.245,-8.021
0.126,11.744,5.466,5.466,72.538,-53.228,-8.024
0.127,11.768,5.467,5.467,72.530,-53.209,-8.036
0.128,11.803,5.465,5.465,72.512,-53.186,-8.056
0.129,11.854,5.459,5.459,72.481,-53.161,-8.088
0.131,11.923,5.446,5.446,72.437,-53.133,-8.132
0.132,12.007,5.426,5.426,72.380,-53.103,-8.186
0.133,12.104,5.400,5.400,72.313,-53.073,-8.250
0.135,12.214,5.367,5.367,72.235,-53.044,-8.321
0.136,12.333,5.329,5.329,72.149,-53.016,-8.399
0.137,12.460,5.288,5.288,72.056,-52.990,-8.482
0.138,12.593,5.243,5.243,71.957,-52.968,-8.567
0.140,12.730,5.195,5.195,71.853,-52.951,-8.655
0.141,12.869,5.147,5.147,71.746,-52.940,-8.743
0.142,13.009,5.099,5.099,71.637,-52.935,-8.830
0.143,13.148,5.051,5.051,71.527,-52.937,-8.915
0.145,13.284,5.004,5.004,71.417,-52.949,-8.996
0.146,13.418,4.959,4.959,71.309,-52.970,-9.071
0.147,13.548,4.916,4.916,71.204,-53.001,-9.141
0.148,13.675,4.876,4.876,71.101,-53.040,-9.204
0.150,13.799,4.839,4.839,71.001,-53.086,-9.261
0.151,13.920,4.806,4.806,70.905,-53.139,-9.312
0.152,14.038,4.778,4.778,70.812,-53.197,-9.357
0.154,14.152,4.755,4.755,70.724,-53.259,-9.396
0.155,14.263,4.736,4.736,70.641,-53.324,-9.429
0.156,14.369,4.722,4.722,70.562,-53.391,-9.455
0.157,14.471,4.712,4.712,70.489,-53.459,-9.474
0.159,14.568,4.707,4.707,70.422,-53.527,-9.488
0.160,14.659,4.707,4.707,70.360,-53.594,-9.494
0.161,14.743,4.711,4.711,70.306,-53.658,-9.495
0.162,14.821,4.719,4.719,70.257,-53.719,-9.488
0.164,14.894,4.730,4.730,70.214,-53.777,-9.478
0.165,14.963,4.742,4.742,70.174,-53.832,-9.465
0.166,15.028,4.752,4.752,70.136,-53.883,-9.453
0.168,15.091,4.760,4.760,70.098,-53.933,-9.444
0.169,15.153,4.762,4.762,70.059,-53.979,-9.439
0.170,15.215,4.756,4.756,70.015,-54.024,-9.443
0.171,15.281,4.741,4.741,69.967,-54.066,-9.456
0.173,15.355,4.714,4.714,69.911,-54.107,-9.482
0.174,15.440,4.677,4.677,69.846,-54.146,-9.523
0.175,15.543,4.633,4.633,69.771,-54.184,-9.581
0.176,15.665,4.586,4.586,69.684,-54.221,-9.659
0.178,15.812,4.538,4.538,69.582,-54.256,-9.759
0.179,15.985,4.493,4.493,69.466,-54.291,-9.881
0.180,16.180,4.453,4.453,69.336,-54.325,-10.024
0.181,16.395,4.423,4.423,69.196,-54.358,-10.183
0.183,16.625,4.405,4.405,69.048,-54.391,-10.356
0.184,16.866,4.400,4.400,68.893,-54.422,-10.538
0.185,17.115,4.406,4.406,68.733,-54.452,-10.727
0.187,17.368,4.421,4.421,68.572,-54.481,-10.919
0.188,17.620,4.444,4.444,68.411,-54.509,-11.111
0.189,17.867,4.475,4.475,68.252,-54.536,-11.299
0.190,18.107,4.511,4.511,68.098,-54.562,-11.480
0.192,18.334,4.552,4.552,67.950,-54.586,-11.651
0.193,18.545,4.596,4.596,67.812,-54.609,-11.808
0.194,18.736,4.642,4.642,67.684,-54.631,-11.948
0.195,18.905,4.688,4.688,67.568,-54.651,-12.071
0.197,19.056,4.735,4.735,67.463,-54.670,-12.177
0.198,19.188,4.780,4.780,67.368,-54.688,-12.268
0.199,19.306,4.823,4.823,67.283,-54.705,-12.347
0.201,19.409,4.863,4.863,67.206,-54.722,-12.414
0.202,19.501,4.899,4.899,67.137,-54.738,-12.472
0.203,19.583,4.929,4.929,67.075,-54.754,-12.522
0.204,19.656,4.955,4.955,67.019,-54.770,-12.567
0.206,19.722,4.977,4.977,66.968,-54.786,-12.607
0.207,19.784,4.995,4.995,66.921,-54.802,-12.644
0.208,19.843,5.011,5.011,66.879,-54.819,-12.681
0.209,19.900,5.025,5.025,66.839,-54.837,-12.718
0.211,19.958,5.038,5.038,66.801,-54.855,-12.758
0.212,20.017,5.051,5.051,66.765,-54.873,-12.800
0.213,20.075,5.064,5.064,66.731,-54.892,-12.844
0.214,20.133,5.078,5.078,66.699,-54.911,-12.888
0.216,20.189,5.092,5.092,66.669,-54.929,-12.931
0.217,20.242,5.107,5.107,66.640,-54.947,-12.973
0.218,20.292,5.121,5.121,66.614,-54.963,-13.012
0.220,20.338,5.134,5.134,66.590,-54.977,-13.048
0.221,20.379,5.147,5.147,66.567,-54.990,-13.080
0.222,20.413,5.158,5.158,66.546,-54.999,-13.106
0.223,20.441,5.169,5.169,66.528,-55.007,-13.126
0.225,20.462,5.178,5.178,66.511,-55.011,-13.138
0.226,20.478,5.186,5.186,66.497,-55.011,-13.143
0.227,20.491,5.193,5.193,66.485,-55.008,-13.139
0.228,20.507,5.198,5.198,66.474,-55.002,-13.128
0.230,20.527,5.203,5.203,66.465,-54.995,-13.112
0.231,20.548,5.207,5.207,66.457,-54.987,-13.094
0.232,20.569,5.211,5.211,66.451,-54.979,-13.075
0.234,20.588,5.213,5.213,66.446,-54.973,-13.058
0.235,20.602,5.215,5.215,66.442,-54.969,-13.045
0.236,20.610,5.216,5.216,66.439,-54.970,-13.038
0.237,20.616,5.215,5.215,66.436,-54.975,-13.039
0.239,20.632,5.212,5.212,66.433,-54.986,-13.050
0.240,20.661,5.207,5.207,66.431,-55.003,-13.073
0.241,20.707,5.200,5.200,66.428,-55.029,-13.111
0.242,20.771,5.190,5.190,66.426,-55.064,-13.165
0.244,20.855,5.177,5.177,66.423,-55.109,-13.236
0.245,20.956,5.161,5.161,66.418,-55.164,-13.320
0.246,21.072,5.141,5.141,66.411,-55.231,-13.415
0.247,21.201,5.117,5.117,66.400,-55.310,-13.516
0.249,21.341,5.090,5.090,66.385,-55.403,-13.621
0.250,21.492,5.058,5.058,66.365,-55.508,-13.725
0.251,21.651,5.022,5.022,66.338,-55.628,-13.827
0.253,21.820,4.981,4.981,66.305,-55.763,-13.922
0.254,21.998,4.935,4.935,66.264,-55.914,-14.008
0.255,22.187,4.884,4.884,66.213,-56.081,-14.080
0.256,22.389,4.831,4.831,66.153,-56.265,-14.136
0.258,22.606,4.774,4.774,66.082,-56.468,-14.172
0.259,22.842,4.715,4.715,65.999,-56.689,-14.185
0.260,23.097,4.656,4.656,65.906,-56.926,-14.176
0.261,23.370,4.595,4.595,65.804,-57.177,-14.147
0.263,23.656,4.535,4.535,65.696,-57.438,-14.101
0.264,23.953,4.476,4.476,65.584,-57.706,-14.041
0.265,24.257,4.419,4.419,65.469,-57.978,-13.970
0.266,24.563,4.365,4.365,65.354,-58.250,-13.890
0.268,24.867,4.315,4.314,65.241,-58.520,-13.804
0.269,25.166,4.269,4.269,65.131,-58.783,-13.715
0.270,25.454,4.230,4.230,65.028,-59.036,-13.625
0.272,25.727,4.197,4.197,64.933,-59.277,-13.538
0.273,25.980,4.172,4.172,64.849,-59.501,-13.456
0.274,26.210,4.155,4.155,64.776,-59.707,-13.382
0.275,26.413,4.146,4.146,64.718,-59.890,-13.318
0.277,26.590,4.143,4.143,64.673,-60.053,-13.264
0.278,26.744,4.145,4.145,64.639,-60.196,-13.219
0.279,26.877,4.151,4.151,64.614,-60.322,-13.183
0.280,26.992,4.160,4.160,64.598,-60.432,-13.155
0.282,27.091,4.171,4.171,64.588,-60.528,-13.134
0.283,27.177,4.182,4.182,64.583,-60.613,-13.120
0.284,27.252,4.193,4.193,64.581,-60.688,-13.112
0.286,27.319,4.204,4.204,64.580,-60.754,-13.109
0.287,27.379,4.216,4.216,64.579,-60.815,-13.110
0.288,27.436,4.228,4.228,64.576,-60.871,-13.114
0.289,27.490,4.241,4.241,64.569,-60.924,-13.122
0.291,27.545,4.254,4.254,64.557,-60.976,-13.132
0.292,27.602,4.270,4.270,64.538,-61.030,-13.143
0.293,27.663,4.287,4.287,64.514,-61.084,-13.157
0.294,27.728,4.305,4.305,64.485,-61.140,-13.171
0.296,27.796,4.324,4.324,64.452,-61.197,-13.188
0.297,27.868,4.342,4.342,64.415,-61.256,-13.205
0.298,27.943,4.359,4.359,64.376,-61.318,-13.225
0.299,28.022,4.372,4.372,64.334,-61.382,-13.245
0.301,28.105,4.380,4.380,64.292,-61.449,-13.268
0.302,28.190,4.383,4.383,64.250,-61.519,-13.291
0.303,28.278,4.378,4.378,64.208,-61.592,-13.316
0.305,28.369,4.367,4.367,64.167,-61.670,-13.343
0.306,28.464,4.350,4.350,64.128,-61.751,-13.370
0.307,28.561,4.329,4.329,64.092,-61.837,-13.399
0.308,28.661,4.306,4.306,64.059,-61.926,-13.430
0.310,28.762,4.283,4.283,64.029,-62.018,-13.461
0.311,28.864,4.263,4.263,64.002,-62.110,-13.492
0.312,28.964,4.246,4.246,63.979,-62.203,-13.523
0.313,29.062,4.235,4.235,63.960,-62.294,-13.554
0.315,29.157,4.231,4.231,63.944,-62.382,-13.584
0.316,29.247,4.233,4.233,63.932,-62.466,-13.614
0.317,29.330,4.240,4.240,63.923,-62.545,-13.641
0.319,29.407,4.251,4.251,63.918,-62.616,-13.667
0.320,29.474,4.265,4.265,63.917,-62.680,-13.691
0.321,29.532,4.281,4.281,63.921,-62.733,-13.713
0.322,29.579,4.298,4.298,63.928,-62.776,-13.731
0.324,29.616,4.314,4.314,63.939,-62.807,-13.746
0.325,29.643,4.330,4.330,63.953,-62.827,-13.759
0.326,29.666,4.344,4.344,63.968,-62.840,-13.770
0.327,29.686,4.355,4.355,63.984,-62.847,-13.780
0.329,29.703,4.363,4.362,63.997,-62.851,-13.791
0.330,29.719,4.367,4.366,64.007,-62.855,-13.802
0.331,29.734,4.365,4.365,64.012,-62.860,-13.815
0.332,29.753,4.358,4.357,64.011,-62.871,-13.831
0.334,29.781,4.343,4.344,64.002,-62.888,-13.851
0.335,29.823,4.322,4.324,63.983,-62.915,-13.876
0.336,29.880,4.296,4.298,63.953,-62.954,-13.906
0.338,29.958,4.266,4.269,63.911,-63.008,-13.943
0.339,30.059,4.233,4.236,63.854,-63.079,-13.987
0.340,30.185,4.200,4.203,63.783,-63.168,-14.039
0.341,30.333,4.166,4.169,63.698,-63.274,-14.099
0.343,30.499,4.135,4.137,63.602,-63.393,-14.165
0.344,30.681,4.107,4.106,63.497,-63.523,-14.237
0.345,30.875,4.084,4.079,63.386,-63.661,-14.314
0.346,31.077,4.063,4.056,63.269,-63.805,-14.396
0.348,31.283,4.045,4.035,63.151,-63.951,-14.481
0.349,31.491,4.029,4.017,63.032,-64.097,-14.569
0.350,31.697,4.015,4.002,62.914,-64.239,-14.659
0.352,31.897,4.000,3.990,62.801,-64.377,-14.751
0.353,32.088,3.986,3.981,62.694,-64.505,-14.843
0.354,32.267,3.970,3.974,62.595,-64.623,-14.935
0.355,32.431,3.953,3.970,62.507,-64.726,-15.026
0.357,32.579,3.936,3.967,62.429,-64.815,-15.116
0.358,32.712,3.918,3.965,62.362,-64.889,-15.204
0.359,32.834,3.901,3.962,62.304,-64.951,-15.291
0.360,32.946,3.884,3.959,62.254,-65.001,-15.378
0.362,33.049,3.869,3.954,62.210,-65.041,-15.463
0.363,33.147,3.855,3.946,62.172,-65.072,-15.547
0.364,33.240,3.843,3.934,62.139,-65.095,-15.630
0.365,33.329,3.834,3.920,62.108,-65.112,-15.712
0.367,33.416,3.826,3.902,62.080,-65.124,-15.794
0.368,33.502,3.819,3.882,62.052,-65.131,-15.875
0.369,33.587,3.813,3.861,62.025,-65.136,-15.955
0.371,33.672,3.807,3.839,61.996,-65.140,-16.035
0.372,33.757,3.799,3.817,61.964,-65.143,-16.114
0.373,33.844,3.790,3.796,61.930,-65.147,-16.194
0.374,33.932,3.780,3.776,61.894,-65.152,-16.274
0.376,34.022,3.767,3.758,61.856,-65.160,-16.355
0.377,34.115,3.756,3.743,61.817,-65.171,-16.438
0.378,34.211,3.746,3.733,61.776,-65.185,-16.525
0.379,34.311,3.740,3.729,61.735,-65.204,-16.614
0.381,34.417,3.740,3.731,61.693,-65.228,-16.708
0.382,34.527,3.747,3.742,61.652,-65.257,-16.806
0.383,34.645,3.763,3.761,61.611,-65.294,-16.910
0.385,34.770,3.790,3.791,61.571,-65.338,-17.020
0.386,34.904,3.828,3.831,61.533,-65.391,-17.137
0.387,35.048,3.875,3.880,61.496,-65.453,-17.262
0.388,35.202,3.929,3.937,61.461,-65.524,-17.394
0.390,35.366,3.988,4.001,61.427,-65.603,-17.533
0.391,35.538,4.052,4.069,61.394,-65.690,-17.679
0.392,35.718,4.117,4.142,61.359,-65.783,-17.829
0.393,35.904,4.182,4.218,61.323,-65.881,-17.982
0.395,36.094,4.246,4.296,61.285,-65.982,-18.139
0.396,36.287,4.307,4.374,61.242,-66.085,-18.296
0.397,36.481,4.365,4.452,61.195,-66.189,-18.454
0.398,36.676,4.419,4.529,61.143,-66.293,-18.610
0.400,36.870,4.470,4.604,61.084,-66.395,-18.764
0.401,37.063,4.517,4.676,61.017,-66.494,-18.915
0.402,37.253,4.560,4.743,60.942,-66.588,-19.062
0.404,37.440,4.597,4.805,60.857,-66.678,-19.203
0.405,37.623,4.630,4.862,60.763,-66.761,-19.337
0.406,37.804,4.658,4.912,60.661,-66.837,-19.464
0.407,37.981,4.683,4.956,60.553,-66.908,-19.585
0.409,38.154,4.706,4.996,60.440,-66.972,-19.699
0.410,38.322,4.729,5.032,60.324,-67.031,-19.806
0.411,38.485,4.753,5.065,60.207,-67.085,-19.906
0.412,38.641,4.779,5.094,60.091,-67.133,-19.998
0.414,38.789,4.809,5.121,59.977,-67.176,-20.083
0.415,38.929,4.844,5.147,59.867,-67.213,-20.161
0.416,39.059,4.882,5.171,59.763,-67.246,-20.231
0.418,39.177,4.924,5.194,59.667,-67.275,-20.294
0.419,39.283,4.966,5.213,59.580,-67.298,-20.349
0.420,39.375,5.008,5.231,59.503,-67.318,-20.396
0.421,39.452,5.047,5.245,59.438,-67.333,-20.435
0.423,39.517,5.081,5.256,59.384,-67.345,-20.468
0.424,39.571,5.109,5.263,59.338,-67.355,-20.495
0.425,39.614,5.130,5.265,59.301,-67.362,-20.516
0.426,39.649,5.144,5.265,59.271,-67.367,-20.532
0.428,39.676,5.151,5.261,59.247,-67.371,-20.545
0.429,39.697,5.154,5.255,59.229,-67.375,-20.554
0.430,39.713,5.154,5.247,59.215,-67.378,-20.561
0.431,39.725,5.151,5.239,59.205,-67.382,-20.566
0.433,39.735,5.149,5.231,59.197,-67.387,-20.569
0.434,39.745,5.148,5.224,59.190,-67.394,-20.573
0.435,39.756,5.148,5.219,59.184,-67.402,-20.576
0.437,39.770,5.151,5.215,59.178,-67.414,-20.581
0.438,39.785,5.156,5.213,59.171,-67.427,-20.586
0.439,39.802,5.161,5.212,59.164,-67.441,-20.592
0.440,39.819,5.165,5.212,59.157,-67.456,-20.597
0.442,39.835,5.169,5.212,59.151,-67.469,-20.602
0.443,39.848,5.170,5.212,59.146,-67.480,-20.607
0.444,39.858,5.169,5.213,59.142,-67.489,-20.610
0.445,39.863,5.164,5.213,59.140,-67.493,-20.612
0.447,39.864,5.157,5.212,59.139,-67.493,-20.611
0.448,39.871,5.148,5.211,59.141,-67.487,-20.609
0.449,39.885,5.139,5.210,59.145,-67.474,-20.603
0.451,39.909,5.131,5.210,59.151,-67.453,-20.595
0.452,39.942,5.125,5.209,59.161,-67.423,-20.582
0.453,39.985,5.123,5.209,59.174,-67.385,-20.567
0.454,40.034,5.125,5.209,59.187,-67.342,-20.551
0.456,40.082,5.133,5.210,59.199,-67.297,-20.537
0.457,40.126,5.146,5.212,59.206,-67.254,-20.528
0.458,40.163,5.161,5.214,59.206,-67.218,-20.526
0.459,40.192,5.178,5.215,59.197,-67.191,-20.534
0.461,40.224,5.193,5.217,59.175,-67.179,-20.555
0.462,40.275,5.206,5.217,59.140,-67.185,-20.591
0.463,40.356,5.214,5.217,59.087,-67.212,-20.646
0.464,40.473,5.216,5.216,59.015,-67.264,-20.722
0.466,40.633,5.210,5.213,58.922,-67.346,-20.822
0.467,40.840,5.199,5.211,58.804,-67.461,-20.948
0.468,41.101,5.188,5.213,58.659,-67.613,-21.103
0.470,41.415,5.181,5.222,58.488,-67.802,-21.287
0.471,41.772,5.183,5.240,58.296,-68.021,-21.494
0.472,42.163,5.198,5.270,58.088,-68.264,-21.718
0.473,42.579,5.232,5.315,57.868,-68.525,-21.955
0.475,43.009,5.287,5.378,57.642,-68.798,-22.200
0.476,43.445,5.368,5.460,57.414,-69.076,-22.446
0.477,43.877,5.471,5.558,57.190,-69.354,-22.688
0.478,44.294,5.586,5.665,56.974,-69.625,-22.922
0.480,44.689,5.707,5.774,56.772,-69.883,-23.142
0.481,45.050,5.827,5.878,56.588,-70.121,-23.341
0.482,45.369,5.938,5.973,56.428,-70.334,-23.516
0.484,45.636,6.033,6.051,56.296,-70.515,-23.661
0.485,45.842,6.104,6.105,56.196,-70.659,-23.770
0.486,45.990,6.146,6.132,56.128,-70.766,-23.846
0.487,46.086,6.161,6.135,56.086,-70.840,-23.891
0.489,46.140,6.155,6.119,56.067,-70.887,-23.911
0.490,46.162,6.132,6.091,56.065,-70.908,-23.910
0.491,46.184,6.098,6.057,56.076,-70.910,-23.891
0.492,46.223,6.058,6.022,56.095,-70.897,-23.860
0.494,46.275,6.016,5.994,56.118,-70.871,-23.820
0.495,46.334,5.978,5.978,56.139,-70.838,-23.776
0.496,46.393,5.949,5.978,56.155,-70.803,-23.732
0.497,46.446,5.928,5.992,56.160,-70.768,-23.693
0.499,46.490,5.914,6.018,56.150,-70.738,-23.662
0.500,46.530,5.907,6.050,56.121,-70.718,-23.643
0.501,46.583,5.906,6.085,56.069,-70.711,-23.641
0.503,46.657,5.910,6.119,55.996,-70.715,-23.654
0.504,46.751,5.918,6.149,55.906,-70.729,-23.679
0.505,46.862,5.930,6.170,55.803,-70.749,-23.713
0.506,46.985,5.944,6.181,55.690,-70.776,-23.755
0.508,47.115,5.959,6.182,55.572,-70.805,-23.802
0.509,47.249,5.974,6.177,55.452,-70.835,-23.852
0.510,47.380,5.987,6.168,55.334,-70.865,-23.901
0.511,47.505,5.997,6.158,55.221,-70.891,-23.948
0.513,47.619,6.002,6.150,55.117,-70.912,-23.991
0.514,47.717,6.002,6.147,55.026,-70.925,-24.026
0.515,47.796,5.994,6.150,54.952,-70.929,-24.051
0.516,47.852,5.979,6.163,54.898,-70.921,-24.064
0.518,47.890,5.958,6.182,54.866,-70.902,-24.064
0.519,47.923,5.934,6.206,54.852,-70.873,-24.055
0.520,47.961,5.911,6.231,54.851,-70.839,-24.040
0.522,48.004,5.890,6.256,54.861,-70.801,-24.021
0.523,48.048,5.875,6.277,54.877,-70.765,-24.002
0.524,48.089,5.869,6.291,54.896,-70.732,-23.987
0.525,48.121,5.875,6.297,54.913,-70.706,-23.979
0.527,48.141,5.893,6.292,54.925,-70.689,-23.980
0.528,48.156,5.920,6.276,54.928,-70.687,-23.995
0.529,48.192,5.950,6.250,54.917,-70.700,-24.026
0.530,48.258,5.980,6.214,54.890,-70.733,-24.077
