"T","Distance","Radius","FreeRadius","X","Y","Z"
0.000,0.000,1.760,1.760,74.943,-51.693,-2.229
0.001,0.196,1.871,1.871,74.836,-51.736,-2.387
0.003,0.390,1.980,1.980,74.730,-51.779,-2.544
0.004,0.579,2.085,2.085,74.626,-51.820,-2.697
0.005,0.762,2.186,2.186,74.527,-51.859,-2.845
0.007,0.936,2.281,2.281,74.432,-51.896,-2.986
0.008,1.099,2.369,2.369,74.344,-51.930,-3.119
0.009,1.248,2.447,2.447,74.264,-51.960,-3.241
0.011,1.382,2.514,2.514,74.192,-51.985,-3.352
0.012,1.498,2.570,2.570,74.131,-52.006,-3.448
0.013,1.594,2.616,2.616,74.081,-52.020,-3.529
0.015,1.668,2.653,2.653,74.044,-52.028,-3.593
0.016,1.719,2.681,2.681,74.021,-52.030,-3.638
0.017,1.750,2.702,2.702,74.010,-52.025,-3.666
0.019,1.767,2.716,2.716,74.008,-52.017,-3.681
0.020,1.779,2.725,2.725,74.014,-52.006,-3.683
0.021,1.796,2.729,2.729,74.024,-51.994,-3.677
0.023,1.817,2.729,2.729,74.036,-51.982,-3.664
0.024,1.839,2.728,2.728,74.048,-51.973,-3.648
0.025,1.860,2.726,2.726,74.058,-51.968,-3.631
0.027,1.876,2.725,2.725,74.062,-51.968,-3.615
0.028,1.890,2.727,2.727,74.058,-51.975,-3.604
0.029,1.911,2.732,2.732,74.045,-51.991,-3.600
0.031,1.948,2.742,2.742,74.019,-52.016,-3.605
0.032,2.001,2.758,2.758,73.980,-52.050,-3.620
0.034,2.067,2.780,2.780,73.932,-52.088,-3.644
0.035,2.145,2.808,2.808,73.874,-52.128,-3.677
0.036,2.231,2.841,2.841,73.808,-52.165,-3.719
0.038,2.323,2.879,2.879,73.737,-52.197,-3.767
0.039,2.420,2.922,2.922,73.661,-52.220,-3.823
0.040,2.521,2.971,2.971,73.582,-52.231,-3.884
0.042,2.625,3.024,3.024,73.502,-52.227,-3.952
0.043,2.736,3.083,3.083,73.422,-52.203,-4.025
0.044,2.855,3.146,3.146,73.344,-52.156,-4.102
0.046,2.987,3.213,3.213,73.269,-52.084,-4.183
0.047,3.134,3.285,3.285,73.198,-51.988,-4.267
0.048,3.293,3.361,3.361,73.130,-51.873,-4.354
0.050,3.461,3.442,3.442,73.066,-51.745,-4.443
0.051,3.636,3.526,3.526,73.005,-51.608,-4.532
0.052,3.812,3.614,3.614,72.947,-51.468,-4.623
0.054,3.986,3.702,3.702,72.893,-51.330,-4.712
0.055,4.152,3.787,3.787,72.841,-51.199,-4.801
0.056,4.306,3.868,3.868,72.792,-51.081,-4.888
0.058,4.445,3.941,3.941,72.746,-50.982,-4.973
0.059,4.566,4.003,4.003,72.702,-50.905,-5.055
0.060,4.666,4.053,4.053,72.660,-50.856,-5.132
0.062,4.753,4.086,4.086,72.621,-50.837,-5.207
0.063,4.835,4.106,4.106,72.583,-50.844,-5.279
0.064,4.921,4.115,4.115,72.548,-50.875,-5.352
0.066,5.017,4.117,4.117,72.514,-50.925,-5.426
0.067,5.124,4.115,4.115,72.483,-50.993,-5.504
0.068,5.244,4.112,4.112,72.452,-51.073,-5.587
0.070,5.374,4.111,4.111,72.424,-51.164,-5.676
0.071,5.516,4.117,4.117,72.397,-51.261,-5.775
0.072,5.666,4.129,4.129,72.371,-51.362,-5.884
0.074,5.826,4.149,4.149,72.347,-51.463,-6.004
0.075,5.994,4.176,4.176,72.323,-51.561,-6.139
0.076,6.170,4.208,4.208,72.301,-51.655,-6.287
0.078,6.352,4.246,4.246,72.280,-51.742,-6.445
0.079,6.537,4.287,4.287,72.261,-51.824,-6.609
0.080,6.721,4.332,4.332,72.242,-51.900,-6.776
0.082,6.900,4.380,4.380,72.225,-51.970,-6.940
0.083,7.073,4.429,4.429,72.209,-52.033,-7.100
0.084,7.234,4.478,4.478,72.194,-52.090,-7.251
0.086,7.381,4.525,4.525,72.181,-52.139,-7.388
0.087,7.510,4.568,4.568,72.168,-52.181,-7.509
0.088,7.617,4.605,4.605,72.158,-52.216,-7.610
0.090,7.698,4.636,4.636,72.148,-52.243,-7.686
0.091,7.753,4.657,4.657,72.140,-52.262,-7.737
0.092,7.784,4.670,4.670,72.134,-52.274,-7.765
0.094,7.798,4.674,4.674,72.128,-52.281,-7.775
0.095,7.803,4.672,4.672,72.125,-52.283,-7.772
0.097,7.816,4.666,4.666,72.123,-52.282,-7.759
0.098,7.835,4.658,4.658,72.123,-52.278,-7.741
0.099,7.854,4.650,4.650,72.124,-52.273,-7.722
0.101,7.871,4.643,4.643,72.127,-52.267,-7.707
0.102,7.882,4.640,4.640,72.133,-52.261,-7.699
0.103,7.891,4.641,4.641,72.140,-52.258,-7.703
0.105,7.913,4.646,4.646,72.149,-52.257,-7.724
0.106,7.954,4.656,4.656,72.160,-52.259,-7.763
0.107,8.013,4.670,4.670,72.172,-52.265,-7.821
0.109,8.088,4.688,4.688,72.186,-52.274,-7.893
0.110,8.175,4.710,4.710,72.201,-52.287,-7.978
0.111,8.273,4.736,4.736,72.216,-52.304,-8.074
0.113,8.380,4.766,4.766,72.232,-52.323,-8.177
0.114,8.492,4.800,4.800,72.247,-52.346,-8.286
0.115,8.608,4.836,4.836,72.262,-52.373,-8.398
0.117,8.725,4.875,4.875,72.276,-52.402,-8.511
0.118,8.842,4.914,4.914,72.288,-52.435,-8.622
0.119,8.955,4.955,4.955,72.299,-52.471,-8.728
0.121,9.062,4.996,4.996,72.308,-52.509,-8.829
0.122,9.165,5.036,5.036,72.315,-52.551,-8.923
0.123,9.264,5.075,5.075,72.320,-52.594,-9.011
0.125,9.359,5.114,5.114,72.325,-52.639,-9.095
0.126,9.451,5.152,5.152,72.329,-52.685,-9.175
0.127,9.540,5.189,5.189,72.332,-52.731,-9.251
0.129,9.627,5.226,5.226,72.335,-52.778,-9.324
0.130,9.712,5.263,5.263,72.339,-52.823,-9.395
0.131,9.794,5.300,5.300,72.343,-52.868,-9.464
0.133,9.876,5.336,5.336,72.347,-52.911,-9.533
0.134,9.956,5.372,5.372,72.353,-52.952,-9.602
0.135,10.036,5.407,5.407,72.361,-52.991,-9.671
0.137,10.114,5.441,5.441,72.370,-53.027,-9.740
0.138,10.191,5.474,5.474,72.380,-53.060,-9.809
0.139,10.264,5.505,5.505,72.390,-53.091,-9.875
0.141,10.335,5.534,5.534,72.401,-53.120,-9.938
0.142,10.400,5.560,5.560,72.412,-53.146,-9.997
0.143,10.461,5.584,5.584,72.423,-53.171,-10.051
0.145,10.515,5.606,5.606,72.434,-53.193,-10.099
0.146,10.562,5.624,5.624,72.443,-53.214,-10.140
0.147,10.601,5.641,5.641,72.451,-53.233,-10.173
0.149,10.631,5.654,5.654,72.458,-53.251,-10.197
0.150,10.653,5.665,5.665,72.463,-53.267,-10.211
0.151,10.669,5.674,5.674,72.466,-53.282,-10.216
0.153,10.683,5.680,5.680,72.467,-53.296,-10.214
0.154,10.697,5.684,5.684,72.467,-53.308,-10.208
0.155,10.711,5.685,5.685,72.466,-53.318,-10.198
0.157,10.725,5.685,5.685,72.463,-53.326,-10.188
0.158,10.737,5.684,5.684,72.460,-53.333,-10.179
0.160,10.745,5.681,5.681,72.456,-53.339,-10.173
0.161,10.751,5.678,5.678,72.451,-53.342,-10.172
0.162,10.760,5.674,5.674,72.446,-53.343,-10.179
0.164,10.777,5.669,5.669,72.441,-53.343,-10.195
0.165,10.805,5.665,5.665,72.436,-53.340,-10.223
0.166,10.845,5.661,5.661,72.430,-53.336,-10.262
0.168,10.897,5.658,5.658,72.424,-53.331,-10.313
0.169,10.959,5.656,5.656,72.415,-53.326,-10.375
0.170,11.033,5.656,5.656,72.403,-53.322,-10.447
0.172,11.116,5.657,5.657,72.387,-53.320,-10.529
0.173,11.209,5.660,5.660,72.366,-53.322,-10.619
0.174,11.311,5.666,5.666,72.339,-53.327,-10.718
0.176,11.423,5.672,5.672,72.306,-53.336,-10.824
0.177,11.544,5.681,5.681,72.265,-53.351,-10.937
0.178,11.675,5.690,5.690,72.216,-53.373,-11.057
0.180,11.816,5.700,5.700,72.158,-53.402,-11.182
0.181,11.967,5.710,5.710,72.091,-53.438,-11.312
0.182,12.124,5.721,5.721,72.018,-53.479,-11.445
0.184,12.286,5.731,5.731,71.940,-53.524,-11.580
0.185,12.448,5.742,5.742,71.860,-53.570,-11.714
0.186,12.609,5.753,5.753,71.781,-53.616,-11.846
0.188,12.764,5.765,5.766,71.705,-53.659,-11.974
0.189,12.912,5.778,5.779,71.635,-53.699,-12.097
0.190,13.048,5.793,5.793,71.572,-53.733,-12.214
0.192,13.171,5.809,5.809,71.519,-53.758,-12.321
0.193,13.278,5.827,5.826,71.479,-53.774,-12.419
0.194,13.367,5.845,5.845,71.453,-53.779,-12.504
0.196,13.441,5.864,5.863,71.442,-53.771,-12.577
0.197,13.504,5.883,5.881,71.443,-53.755,-12.638
0.198,13.560,5.900,5.898,71.452,-53.733,-12.689
0.200,13.610,5.914,5.913,71.465,-53.710,-12.731
0.201,13.652,5.925,5.924,71.478,-53.687,-12.764
0.202,13.685,5.932,5.932,71.486,-53.670,-12.791
0.204,13.709,5.934,5.936,71.487,-53.660,-12.813
0.205,13.729,5.932,5.937,71.476,-53.662,-12.830
0.206,13.764,5.927,5.934,71.449,-53.679,-12.844
0.208,13.823,5.919,5.928,71.402,-53.714,-12.855
0.209,13.915,5.908,5.920,71.331,-53.771,-12.867
0.210,14.040,5.897,5.909,71.235,-53.851,-12.878
0.212,14.196,5.884,5.897,71.116,-53.951,-12.891
0.213,14.378,5.871,5.884,70.977,-54.068,-12.904
0.214,14.580,5.858,5.870,70.822,-54.197,-12.918
0.216,14.797,5.845,5.857,70.655,-54.334,-12.934
0.217,15.024,5.833,5.843,70.478,-54.475,-12.952
0.218,15.256,5.822,5.831,70.296,-54.617,-12.972
0.220,15.488,5.811,5.821,70.111,-54.756,-12.994
0.221,15.714,5.802,5.813,69.929,-54.887,-13.019
0.223,15.931,5.795,5.808,69.751,-55.007,-13.047
0.224,16.132,5.789,5.806,69.581,-55.112,-13.079
0.225,16.316,5.785,5.806,69.423,-55.199,-13.113
0.227,16.482,5.783,5.809,69.277,-55.268,-13.150
0.228,16.633,5.781,5.812,69.141,-55.322,-13.189
0.229,16.771,5.781,5.817,69.016,-55.364,-13.229
0.231,16.897,5.781,5.821,68.901,-55.395,-13.268
0.232,17.011,5.783,5.824,68.795,-55.418,-13.306
0.233,17.116,5.785,5.826,68.698,-55.435,-13.343
0.235,17.212,5.788,5.826,68.609,-55.447,-13.376
0.236,17.299,5.791,5.826,68.528,-55.457,-13.405
0.237,17.377,5.796,5.825,68.454,-55.468,-13.429
0.239,17.448,5.801,5.823,68.387,-55.481,-13.447
0.240,17.513,5.807,5.822,68.326,-55.499,-13.459
0.241,17.572,5.814,5.821,68.271,-55.521,-13.465
0.243,17.628,5.822,5.821,68.221,-55.546,-13.465
0.244,17.681,5.832,5.822,68.176,-55.574,-13.461
0.245,17.731,5.841,5.825,68.137,-55.604,-13.453
0.247,17.779,5.852,5.830,68.102,-55.635,-13.444
0.248,17.824,5.861,5.838,68.072,-55.667,-13.432
0.249,17.867,5.871,5.848,68.046,-55.699,-13.420
0.251,17.906,5.878,5.862,68.024,-55.729,-13.408
0.252,17.942,5.885,5.879,68.006,-55.758,-13.398
0.253,17.973,5.889,5.900,67.992,-55.784,-13.390
0.255,17.999,5.891,5.924,67.981,-55.807,-13.385
0.256,18.021,5.889,5.948,67.972,-55.827,-13.383
0.257,18.040,5.885,5.971,67.964,-55.845,-13.386
0.259,18.060,5.877,5.990,67.957,-55.862,-13.393
0.260,18.082,5.866,6.004,67.949,-55.877,-13.406
0.261,18.108,5.850,6.010,67.938,-55.893,-13.425
0.263,18.141,5.830,6.005,67.925,-55.909,-13.450
0.264,18.182,5.805,5.989,67.907,-55.927,-13.482
0.265,18.232,5.775,5.963,67.883,-55.947,-13.522
0.267,18.293,5.741,5.926,67.853,-55.970,-13.569
0.268,18.365,5.702,5.881,67.815,-55.996,-13.625
0.269,18.451,5.660,5.829,67.768,-56.027,-13.690
0.271,18.549,5.613,5.770,67.713,-56.062,-13.763
0.272,18.658,5.562,5.706,67.650,-56.102,-13.843
0.273,18.776,5.507,5.639,67.582,-56.146,-13.928
0.275,18.901,5.449,5.568,67.509,-56.194,-14.017
0.276,19.031,5.390,5.496,67.432,-56.246,-14.108
0.277,19.164,5.329,5.424,67.353,-56.302,-14.199
0.279,19.298,5.267,5.353,67.274,-56.362,-14.290
0.280,19.432,5.207,5.285,67.195,-56.424,-14.378
0.282,19.563,5.149,5.221,67.118,-56.490,-14.461
0.283,19.691,5.094,5.163,67.044,-56.560,-14.539
0.284,19.814,5.043,5.110,66.974,-56.631,-14.610
0.286,19.931,4.996,5.064,66.909,-56.706,-14.673
0.287,20.043,4.952,5.022,66.849,-56.781,-14.730
0.288,20.152,4.911,4.984,66.792,-56.858,-14.782
0.290,20.256,4.874,4.949,66.738,-56.933,-14.830
0.291,20.357,4.839,4.915,66.687,-57.007,-14.875
0.292,20.454,4.807,4.882,66.638,-57.079,-14.918
0.294,20.548,4.778,4.848,66.590,-57.147,-14.961
0.295,20.639,4.750,4.814,66.542,-57.211,-15.005
0.296,20.727,4.724,4.779,66.495,-57.270,-15.051
0.298,20.813,4.698,4.743,66.448,-57.323,-15.100
0.299,20.899,4.671,4.705,66.399,-57.368,-15.154
0.300,20.985,4.644,4.667,66.348,-57.407,-15.212
0.302,21.076,4.615,4.626,66.293,-57.443,-15.276
0.303,21.175,4.584,4.585,66.232,-57.478,-15.344
0.304,21.282,4.550,4.542,66.163,-57.516,-15.417
0.306,21.402,4.513,4.498,66.084,-57.561,-15.495
0.307,21.537,4.475,4.455,65.992,-57.615,-15.577
0.308,21.689,4.436,4.414,65.886,-57.683,-15.663
0.310,21.862,4.397,4.376,65.764,-57.766,-15.753
0.311,22.061,4.358,4.342,65.623,-57.870,-15.847
0.312,22.287,4.321,4.314,65.462,-57.996,-15.945
0.314,22.547,4.287,4.293,65.279,-58.148,-16.047
0.315,22.839,4.255,4.278,65.073,-58.328,-16.151
0.316,23.160,4.229,4.271,64.849,-58.532,-16.259
0.318,23.503,4.208,4.271,64.613,-58.753,-16.370
0.319,23.860,4.195,4.276,64.368,-58.989,-16.482
0.320,24.227,4.190,4.287,64.121,-59.234,-16.597
0.322,24.595,4.196,4.304,63.877,-59.483,-16.712
0.323,24.958,4.213,4.326,63.640,-59.733,-16.829
0.324,25.310,4.243,4.352,63.416,-59.977,-16.947
0.326,25.643,4.284,4.382,63.209,-60.211,-17.065
0.327,25.953,4.332,4.415,63.026,-60.431,-17.183
0.328,26.233,4.385,4.449,62.871,-60.631,-17.301
0.330,26.479,4.439,4.484,62.747,-60.809,-17.417
0.331,26.694,4.493,4.518,62.652,-60.965,-17.532
0.332,26.884,4.542,4.551,62.583,-61.101,-17.646
0.334,27.053,4.585,4.582,62.536,-61.219,-17.757
0.335,27.204,4.619,4.608,62.506,-61.320,-17.864
0.336,27.340,4.646,4.632,62.491,-61.406,-17.969
0.338,27.464,4.666,4.652,62.487,-61.479,-18.069
0.339,27.577,4.681,4.669,62.489,-61.541,-18.164
0.340,27.682,4.690,4.682,62.495,-61.593,-18.255
0.342,27.777,4.696,4.692,62.500,-61.637,-18.339
0.343,27.864,4.699,4.699,62.501,-61.675,-18.417
0.345,27.944,4.700,4.702,62.495,-61.709,-18.489
0.346,28.017,4.700,4.702,62.481,-61.739,-18.554
0.347,28.085,4.700,4.700,62.461,-61.766,-18.614
0.349,28.150,4.699,4.698,62.436,-61.790,-18.668
0.350,28.212,4.699,4.697,62.407,-61.812,-18.718
0.351,28.272,4.699,4.697,62.374,-61.832,-18.764
0.353,28.331,4.701,4.700,62.338,-61.851,-18.807
0.354,28.388,4.705,4.706,62.302,-61.869,-18.847
0.355,28.444,4.712,4.717,62.264,-61.887,-18.886
0.357,28.499,4.720,4.731,62.228,-61.905,-18.922
0.358,28.553,4.731,4.748,62.193,-61.923,-18.958
0.359,28.605,4.742,4.767,62.160,-61.943,-18.994
0.361,28.657,4.754,4.787,62.130,-61.963,-19.030
0.362,28.708,4.767,4.806,62.101,-61.984,-19.067
0.363,28.758,4.780,4.825,62.073,-62.003,-19.105
0.365,28.809,4.792,4.842,62.046,-62.020,-19.144
0.366,28.860,4.804,4.857,62.019,-62.035,-19.185
0.367,28.913,4.816,4.870,61.991,-62.047,-19.228
0.369,28.967,4.826,4.881,61.961,-62.054,-19.273
0.370,29.025,4.835,4.889,61.930,-62.056,-19.322
0.371,29.087,4.843,4.895,61.896,-62.052,-19.373
0.373,29.154,4.850,4.898,61.859,-62.042,-19.428
0.374,29.228,4.855,4.899,61.819,-62.025,-19.487
0.375,29.308,4.858,4.896,61.774,-62.001,-19.550
0.377,29.395,4.860,4.892,61.725,-61.972,-19.616
0.378,29.486,4.861,4.886,61.672,-61.942,-19.684
0.379,29.581,4.862,4.879,61.615,-61.911,-19.753
0.381,29.679,4.862,4.873,61.553,-61.883,-19.824
0.382,29.780,4.862,4.868,61.487,-61.858,-19.895
0.383,29.882,4.864,4.865,61.416,-61.840,-19.966
0.385,29.985,4.866,4.864,61.340,-61.830,-20.036
0.386,30.090,4.869,4.865,61.260,-61.830,-20.104
0.387,30.199,4.873,4.868,61.175,-61.843,-20.170
0.389,30.313,4.877,4.872,61.084,-61.870,-20.233
0.390,30.432,4.880,4.877,60.990,-61.911,-20.292
0.391,30.555,4.883,4.880,60.893,-61.963,-20.348
0.393,30.681,4.884,4.883,60.796,-62.024,-20.400
0.394,30.807,4.884,4.884,60.700,-62.091,-20.447
0.395,30.930,4.882,4.883,60.607,-62.161,-20.488
0.397,31.048,4.879,4.880,60.520,-62.232,-20.525
0.398,31.158,4.874,4.876,60.440,-62.300,-20.556
0.399,31.256,4.869,4.870,60.368,-62.362,-20.580
0.401,31.339,4.863,4.863,60.308,-62.417,-20.598
0.402,31.405,4.856,4.856,60.260,-62.461,-20.609
0.403,31.451,4.849,4.849,60.226,-62.491,-20.612
0.405,31.476,4.843,4.842,60.207,-62.508,-20.609
0.406,31.488,4.836,4.836,60.200,-62.513,-20.601
0.408,31.499,4.831,4.831,60.201,-62.509,-20.591
0.409,31.515,4.827,4.827,60.209,-62.500,-20.581
0.410,31.533,4.825,4.825,60.220,-62.487,-20.572
0.412,31.551,4.825,4.824,60.231,-62.474,-20.568
0.413,31.564,4.826,4.826,60.239,-62.464,-20.570
0.414,31.576,4.831,4.831,60.242,-62.459,-20.580
0.416,31.598,4.838,4.838,60.237,-62.461,-20.601
0.417,31.638,4.847,4.847,60.220,-62.475,-20.635
0.418,31.702,4.857,4.857,60.190,-62.503,-20.683
0.420,31.791,4.866,4.866,60.144,-62.544,-20.748
0.421,31.902,4.874,4.874,60.086,-62.598,-20.826
0.422,32.030,4.879,4.879,60.017,-62.659,-20.915
0.424,32.171,4.881,4.881,59.941,-62.725,-21.013
0.425,32.319,4.879,4.879,59.860,-62.792,-21.117
0.426,32.470,4.872,4.872,59.776,-62.857,-21.225
0.428,32.619,4.862,4.861,59.694,-62.915,-21.334
0.429,32.762,4.850,4.850,59.614,-62.965,-21.442
0.430,32.895,4.837,4.837,59.541,-63.002,-21.547
0.432,33.014,4.826,4.826,59.477,-63.023,-21.645
0.433,33.119,4.817,4.817,59.423,-63.024,-21.735
0.434,33.211,4.811,4.811,59.383,-63.005,-21.815
0.436,33.297,4.810,4.810,59.353,-62.969,-21.888
0.437,33.383,4.812,4.812,59.332,-62.924,-21.958
0.438,33.469,4.816,4.816,59.315,-62.876,-22.027
0.440,33.556,4.818,4.818,59.302,-62.831,-22.100
0.441,33.644,4.817,4.817,59.288,-62.796,-22.180
0.442,33.737,4.811,4.811,59.271,-62.776,-22.270
0.444,33.843,4.798,4.798,59.249,-62.778,-22.373
0.445,33.970,4.777,4.777,59.219,-62.808,-22.493
0.446,34.130,4.748,4.748,59.178,-62.872,-22.633
0.448,34.333,4.715,4.715,59.123,-62.977,-22.798
0.449,34.585,4.684,4.684,59.053,-63.127,-22.988
0.450,34.880,4.659,4.659,58.969,-63.316,-23.199
0.452,35.210,4.644,4.644,58.875,-63.535,-23.427
0.453,35.563,4.645,4.645,58.774,-63.776,-23.664
0.454,35.929,4.665,4.665,58.668,-64.030,-23.905
0.456,36.297,4.709,4.709,58.561,-64.289,-24.144
0.457,36.658,4.772,4.772,58.456,-64.545,-24.376
0.458,36.999,4.847,4.847,58.356,-64.788,-24.594
0.460,37.312,4.927,4.927,58.264,-65.011,-24.792
0.461,37.583,5.007,5.007,58.183,-65.204,-24.965
0.462,37.804,5.079,5.079,58.116,-65.360,-25.106
0.464,37.965,5.137,5.137,58.066,-65.471,-25.212
0.465,38.071,5.175,5.175,58.032,-65.541,-25.283
0.466,38.130,5.190,5.190,58.011,-65.576,-25.325
0.468,38.151,5.188,5.188,58.002,-65.585,-25.343
0.469,38.163,5.176,5.176,58.002,-65.573,-25.341
0.471,38.192,5.158,5.158,58.009,-65.550,-25.325
0.472,38.233,5.140,5.140,58.020,-65.521,-25.299
0.473,38.276,5.130,5.130,58.034,-65.494,-25.268
0.475,38.314,5.131,5.131,58.048,-65.477,-25.237
0.476,38.342,5.150,5.150,58.060,-65.477,-25.211
0.477,38.372,5.185,5.185,58.068,-65.500,-25.195
0.479,38.426,5.230,5.230,58.069,-65.554,-25.193
0.480,38.511,5.281,5.281,58.064,-65.638,-25.206
0.481,38.624,5.334,5.334,58.052,-65.748,-25.231
0.483,38.760,5.385,5.385,58.033,-65.878,-25.267
0.484,38.914,5.428,5.428,58.009,-66.024,-25.311
0.485,39.082,5.459,5.459,57.978,-66.180,-25.361
0.487,39.257,5.477,5.477,57.942,-66.343,-25.416
0.488,39.436,5.483,5.483,57.901,-66.507,-25.473
0.489,39.613,5.480,5.480,57.854,-66.668,-25.530
0.491,39.784,5.471,5.471,57.803,-66.821,-25.585
0.492,39.943,5.458,5.458,57.747,-66.961,-25.637
0.493,40.086,5.445,5.445,57.687,-67.083,-25.682
0.495,40.215,5.434,5.434,57.623,-67.188,-25.721
0.496,40.331,5.427,5.427,57.556,-67.277,-25.753
0.497,40.439,5.424,5.424,57.486,-67.354,-25.780
0.499,40.541,5.426,5.426,57.413,-67.422,-25.802
0.500,40.639,5.432,5.432,57.338,-67.483,-25.819
0.501,40.736,5.441,5.441,57.261,-67.541,-25.831
0.503,40.833,5.452,5.452,57.184,-67.599,-25.841
0.504,40.932,5.465,5.465,57.105,-67.659,-25.847
0.505,41.034,5.479,5.479,57.027,-67.724,-25.850
0.507,41.142,5.495,5.495,56.949,-67.798,-25.851
0.508,41.257,5.511,5.511,56.871,-67.883,-25.851
0.509,41.380,5.528,5.528,56.794,-67.980,-25.849
0.511,41.511,5.545,5.545,56.720,-68.087,-25.845
0.512,41.646,5.563,5.563,56.647,-68.201,-25.840
0.513,41.785,5.582,5.582,56.578,-68.322,-25.832
0.515,41.926,5.601,5.601,56.512,-68.446,-25.823
0.516,42.067,5.620,5.620,56.450,-68.571,-25.811
0.517,42.205,5.640,5.640,56.392,-68.696,-25.796
0.519,42.339,5.660,5.659,56.340,-68.819,-25.779
0.520,42.468,5.680,5.680,56.293,-68.936,-25.759
0.521,42.588,5.700,5.700,56.253,-69.047,-25.735
0.523,42.698,5.721,5.720,56.220,-69.149,-25.709
0.524,42.799,5.741,5.741,56.194,-69.242,-25.679
0.525,42.890,5.762,5.762,56.174,-69.325,-25.647
0.527,42.975,5.783,5.783,56.160,-69.401,-25.613
0.528,43.053,5.803,5.803,56.149,-69.471,-25.580
0.529,43.126,5.822,5.822,56.143,-69.536,-25.546
0.531,43.196,5.839,5.839,56.139,-69.597,-25.514
0.532,43.262,5.854,5.854,56.137,-69.656,-25.484
0.534,43.325,5.865,5.865,56.137,-69.714,-25.458
0.535,43.388,5.873,5.873,56.136,-69.772,-25.435
0.536,43.450,5.877,5.877,56.135,-69.832,-25.418
0.538,43.514,5.878,5.877,56.132,-69.895,-25.406
0.539,43.580,5.876,5.876,56.128,-69.960,-25.401
0.540,43.649,5.875,5.874,56.121,-70.029,-25.400
0.542,43.719,5.874,5.873,56.113,-70.099,-25.402
0.543,43.790,5.877,5.876,56.103,-70.169,-25.406
0.544,43.861,5.883,5.883,56.091,-70.239,-25.409
0.546,43.931,5.896,5.896,56.079,-70.308,-25.411
0.547,43.998,5.916,5.917,56.066,-70.373,-25.408
0.548,44.062,5.941,5.943,56.052,-70.435,-25.401
0.550,44.123,5.971,5.974,56.037,-70.492,-25.386
0.551,44.181,6.003,6.007,56.023,-70.544,-25.363
0.552,44.238,6.037,6.041,56.008,-70.588,-25.330
0.554,44.298,6.070,6.073,55.994,-70.626,-25.285
0.555,44.363,6.101,6.102,55.977,-70.659,-25.232
0.556,44.434,6.129,6.127,55.955,-70.690,-25.172
0.558,44.511,6.152,6.146,55.926,-70.723,-25.109
0.559,44.594,6.169,6.158,55.887,-70.760,-25.045
0.560,44.686,6.177,6.163,55.837,-70.805,-24.983
