"T","Distance","Radius","FreeRadius","X","Y","Z"
0.000,0.000,1.905,1.905,188.943,176.176,214.821
0.002,0.547,1.948,1.948,189.252,176.006,214.403
0.003,1.090,1.997,1.997,189.558,175.838,213.987
0.005,1.625,2.059,2.059,189.860,175.672,213.578
0.006,2.146,2.142,2.142,190.155,175.511,213.180
0.008,2.650,2.251,2.251,190.441,175.356,212.795
0.009,3.132,2.393,2.393,190.716,175.209,212.428
0.011,3.588,2.575,2.575,190.978,175.071,212.081
0.012,4.014,2.795,2.795,191.224,174.943,211.758
0.014,4.405,3.038,3.038,191.452,174.828,211.462
0.015,4.757,3.291,3.291,191.660,174.725,211.197
0.017,5.066,3.538,3.538,191.846,174.638,210.966
0.018,5.327,3.765,3.765,192.007,174.568,210.773
0.020,5.538,3.956,3.956,192.142,174.515,210.619
0.021,5.704,4.098,4.098,192.253,174.477,210.501
0.023,5.830,4.193,4.193,192.341,174.451,210.415
0.024,5.921,4.249,4.249,192.408,174.435,210.356
0.026,5.983,4.276,4.276,192.458,174.426,210.320
0.027,6.021,4.283,4.283,192.491,174.422,210.301
0.029,6.041,4.278,4.278,192.509,174.419,210.296
0.030,6.049,4.272,4.272,192.515,174.416,210.300
0.032,6.061,4.270,4.270,192.511,174.408,210.308
0.033,6.081,4.274,4.274,192.499,174.394,210.317
0.035,6.110,4.281,4.281,192.481,174.372,210.320
0.037,6.152,4.292,4.292,192.458,174.337,210.315
0.038,6.209,4.305,4.305,192.433,174.289,210.297
0.040,6.280,4.319,4.319,192.407,174.229,210.269
0.041,6.364,4.334,4.334,192.380,174.160,210.231
0.043,6.457,4.349,4.349,192.353,174.083,210.186
0.044,6.558,4.363,4.363,192.326,174.000,210.135
0.046,6.662,4.377,4.377,192.301,173.914,210.081
0.047,6.769,4.392,4.392,192.278,173.826,210.026
0.049,6.874,4.407,4.407,192.257,173.739,209.970
0.050,6.975,4.423,4.423,192.241,173.655,209.917
0.052,7.069,4.439,4.439,192.228,173.576,209.867
0.053,7.154,4.455,4.455,192.220,173.504,209.823
0.055,7.226,4.471,4.471,192.218,173.441,209.787
0.056,7.286,4.486,4.486,192.223,173.388,209.760
0.058,7.334,4.500,4.500,192.232,173.345,209.741
0.059,7.375,4.513,4.513,192.248,173.308,209.730
0.061,7.412,4.522,4.522,192.268,173.278,209.727
0.062,7.448,4.530,4.530,192.293,173.253,209.730
0.064,7.485,4.535,4.535,192.322,173.230,209.739
0.065,7.527,4.538,4.538,192.355,173.209,209.754
0.067,7.573,4.540,4.540,192.391,173.188,209.773
0.068,7.624,4.541,4.541,192.430,173.165,209.797
0.070,7.680,4.542,4.542,192.472,173.139,209.824
0.072,7.742,4.542,4.542,192.515,173.108,209.854
0.073,7.808,4.543,4.543,192.561,173.072,209.886
0.075,7.881,4.546,4.546,192.608,173.028,209.920
0.076,7.959,4.552,4.552,192.655,172.977,209.955
0.078,8.041,4.561,4.561,192.704,172.920,209.989
0.079,8.127,4.576,4.576,192.753,172.857,210.021
0.081,8.217,4.597,4.597,192.803,172.788,210.052
0.082,8.310,4.625,4.625,192.852,172.715,210.078
0.084,8.405,4.657,4.657,192.901,172.636,210.100
0.085,8.503,4.690,4.690,192.950,172.553,210.117
0.087,8.602,4.719,4.719,192.998,172.466,210.127
0.088,8.704,4.742,4.742,193.044,172.376,210.129
0.090,8.808,4.755,4.755,193.089,172.282,210.123
0.091,8.915,4.754,4.754,193.133,172.186,210.107
0.093,9.025,4.737,4.737,193.175,172.088,210.081
0.094,9.136,4.709,4.709,193.215,171.990,210.047
0.096,9.249,4.673,4.673,193.253,171.892,210.006
0.097,9.362,4.633,4.633,193.290,171.796,209.958
0.099,9.474,4.592,4.592,193.325,171.703,209.907
0.100,9.582,4.553,4.553,193.358,171.616,209.852
0.102,9.686,4.521,4.521,193.390,171.534,209.796
0.104,9.784,4.497,4.497,193.420,171.461,209.740
0.105,9.873,4.478,4.478,193.449,171.396,209.686
0.107,9.954,4.464,4.464,193.477,171.341,209.634
0.108,10.023,4.454,4.454,193.503,171.298,209.586
0.110,10.080,4.447,4.447,193.528,171.268,209.544
0.111,10.126,4.441,4.441,193.552,171.250,209.509
0.113,10.163,4.436,4.436,193.573,171.243,209.480
0.114,10.191,4.432,4.432,193.591,171.244,209.459
0.116,10.212,4.427,4.427,193.606,171.248,209.444
0.117,10.226,4.424,4.424,193.616,171.255,209.437
0.119,10.233,4.421,4.421,193.620,171.260,209.437
0.120,10.240,4.419,4.419,193.618,171.261,209.444
0.122,10.259,4.418,4.418,193.610,171.256,209.460
0.123,10.291,4.418,4.418,193.593,171.241,209.483
0.125,10.340,4.418,4.418,193.568,171.213,209.514
0.126,10.407,4.419,4.419,193.534,171.170,209.553
0.128,10.496,4.419,4.419,193.489,171.109,209.601
0.129,10.607,4.420,4.420,193.436,171.029,209.656
0.131,10.738,4.420,4.420,193.377,170.929,209.716
0.132,10.885,4.419,4.419,193.315,170.812,209.779
0.134,11.046,4.417,4.417,193.255,170.677,209.843
0.135,11.219,4.411,4.411,193.199,170.525,209.905
0.137,11.403,4.400,4.400,193.152,170.357,209.963
0.139,11.598,4.383,4.383,193.116,170.173,210.015
0.140,11.802,4.358,4.358,193.096,169.974,210.059
0.142,12.017,4.323,4.323,193.094,169.762,210.092
0.143,12.245,4.280,4.280,193.115,169.536,210.112
0.145,12.488,4.231,4.231,193.161,169.297,210.116
0.146,12.751,4.185,4.185,193.237,169.046,210.104
0.148,13.033,4.147,4.147,193.341,168.785,210.073
0.149,13.333,4.122,4.122,193.469,168.518,210.028
0.151,13.644,4.118,4.118,193.617,168.250,209.970
0.152,13.963,4.139,4.139,193.779,167.983,209.903
0.154,14.284,4.185,4.185,193.950,167.723,209.828
0.155,14.599,4.251,4.251,194.126,167.473,209.749
0.157,14.904,4.329,4.329,194.302,167.237,209.668
0.158,15.191,4.412,4.412,194.472,167.020,209.589
0.160,15.455,4.494,4.494,194.632,166.825,209.512
0.161,15.688,4.567,4.567,194.776,166.656,209.442
0.163,15.884,4.625,4.625,194.901,166.518,209.381
0.164,16.037,4.668,4.668,195.001,166.414,209.331
0.166,16.146,4.699,4.699,195.076,166.343,209.293
0.167,16.219,4.721,4.721,195.128,166.300,209.267
0.169,16.263,4.735,4.735,195.162,166.278,209.250
0.170,16.284,4.745,4.745,195.181,166.272,209.242
0.172,16.292,4.754,4.754,195.189,166.275,209.242
0.174,16.301,4.762,4.762,195.188,166.281,209.248
0.175,16.314,4.771,4.771,195.184,166.285,209.260
0.177,16.331,4.779,4.779,195.179,166.279,209.275
0.178,16.359,4.789,4.789,195.177,166.259,209.294
0.180,16.405,4.798,4.798,195.181,166.218,209.314
0.181,16.477,4.808,4.808,195.195,166.150,209.335
0.183,16.584,4.818,4.818,195.223,166.049,209.355
0.184,16.725,4.831,4.831,195.266,165.915,209.374
0.186,16.897,4.850,4.850,195.322,165.754,209.390
0.187,17.094,4.878,4.878,195.391,165.570,209.403
0.189,17.311,4.919,4.919,195.472,165.369,209.412
0.190,17.543,4.976,4.976,195.563,165.155,209.415
0.192,17.786,5.053,5.053,195.664,164.935,209.413
0.193,18.034,5.152,5.152,195.774,164.712,209.404
0.195,18.283,5.268,5.268,195.891,164.493,209.387
0.196,18.529,5.393,5.393,196.016,164.282,209.362
0.198,18.767,5.520,5.520,196.145,164.085,209.327
0.199,18.995,5.642,5.642,196.280,163.907,209.282
0.201,19.210,5.750,5.750,196.417,163.753,209.226
0.202,19.412,5.838,5.838,196.558,163.623,209.159
0.204,19.603,5.901,5.901,196.698,163.517,209.084
0.205,19.786,5.944,5.944,196.838,163.431,209.003
0.207,19.960,5.972,5.972,196.974,163.364,208.917
0.209,20.127,5.989,5.989,197.106,163.315,208.829
0.210,20.284,6.001,6.001,197.231,163.280,208.741
0.212,20.432,6.011,6.011,197.349,163.258,208.654
0.213,20.568,6.025,6.025,197.456,163.248,208.570
0.215,20.692,6.044,6.044,197.552,163.246,208.492
0.216,20.801,6.066,6.066,197.635,163.251,208.421
0.218,20.893,6.090,6.090,197.703,163.262,208.360
0.219,20.967,6.116,6.116,197.755,163.276,208.310
0.221,21.021,6.142,6.142,197.790,163.290,208.271
0.222,21.060,6.166,6.166,197.812,163.304,208.242
0.224,21.086,6.188,6.188,197.822,163.313,208.221
0.225,21.101,6.206,6.206,197.823,163.317,208.206
0.227,21.114,6.219,6.219,197.815,163.313,208.197
0.228,21.134,6.227,6.227,197.802,163.298,208.191
0.230,21.167,6.227,6.227,197.785,163.270,208.187
0.231,21.214,6.219,6.219,197.767,163.226,208.184
0.233,21.278,6.202,6.202,197.749,163.166,208.180
0.234,21.360,6.175,6.175,197.734,163.086,208.173
0.236,21.463,6.141,6.141,197.723,162.983,208.163
0.237,21.590,6.104,6.103,197.718,162.857,208.147
0.239,21.740,6.064,6.064,197.720,162.709,208.126
0.240,21.908,6.026,6.026,197.728,162.543,208.101
0.242,22.090,5.991,5.991,197.741,162.363,208.073
0.244,22.283,5.962,5.963,197.759,162.174,208.043
0.245,22.480,5.939,5.940,197.780,161.980,208.012
0.247,22.679,5.920,5.921,197.805,161.785,207.981
0.248,22.875,5.904,5.905,197.832,161.594,207.950
0.250,23.063,5.888,5.889,197.860,161.410,207.922
0.251,23.240,5.872,5.873,197.889,161.238,207.896
0.253,23.400,5.854,5.854,197.919,161.082,207.874
0.254,23.540,5.833,5.831,197.947,160.946,207.857
0.256,23.655,5.810,5.806,197.975,160.834,207.846
0.257,23.748,5.785,5.781,198.001,160.745,207.840
0.259,23.822,5.761,5.756,198.025,160.675,207.841
0.260,23.882,5.739,5.734,198.047,160.620,207.846
0.262,23.930,5.719,5.717,198.066,160.577,207.856
0.263,23.972,5.704,5.706,198.083,160.541,207.872
0.265,24.012,5.692,5.701,198.097,160.510,207.891
0.266,24.053,5.681,5.699,198.108,160.478,207.915
0.268,24.098,5.670,5.698,198.115,160.443,207.942
0.269,24.150,5.656,5.694,198.119,160.401,207.973
0.271,24.213,5.638,5.686,198.119,160.348,208.007
0.272,24.290,5.613,5.671,198.115,160.281,208.043
0.274,24.384,5.579,5.646,198.106,160.196,208.082
0.275,24.495,5.537,5.612,198.094,160.093,208.124
0.277,24.621,5.490,5.571,198.078,159.976,208.167
0.279,24.760,5.440,5.525,198.059,159.846,208.212
0.280,24.909,5.388,5.477,198.038,159.706,208.259
0.282,25.065,5.338,5.427,198.015,159.559,208.306
0.283,25.227,5.291,5.379,197.991,159.407,208.354
0.285,25.392,5.248,5.333,197.966,159.251,208.403
0.286,25.557,5.210,5.291,197.941,159.095,208.452
0.288,25.721,5.176,5.253,197.916,158.941,208.500
0.289,25.880,5.145,5.220,197.892,158.790,208.548
0.291,26.033,5.117,5.193,197.869,158.647,208.595
0.292,26.177,5.092,5.171,197.849,158.512,208.641
0.294,26.312,5.069,5.157,197.830,158.386,208.686
0.295,26.438,5.048,5.149,197.814,158.269,208.729
0.297,26.556,5.029,5.146,197.799,158.160,208.771
0.298,26.665,5.012,5.147,197.786,158.059,208.812
0.300,26.766,4.997,5.149,197.775,157.966,208.850
0.301,26.859,4.985,5.152,197.766,157.881,208.887
0.303,26.945,4.975,5.154,197.758,157.804,208.922
0.304,27.022,4.968,5.153,197.753,157.733,208.954
0.306,27.093,4.963,5.151,197.749,157.669,208.984
0.307,27.157,4.959,5.146,197.746,157.612,209.012
0.309,27.213,4.955,5.140,197.745,157.562,209.038
0.311,27.264,4.952,5.133,197.746,157.517,209.061
0.312,27.309,4.949,5.126,197.747,157.476,209.082
0.314,27.352,4.944,5.118,197.750,157.439,209.103
0.315,27.394,4.938,5.111,197.753,157.403,209.124
0.317,27.436,4.930,5.104,197.756,157.367,209.146
0.318,27.481,4.920,5.095,197.759,157.330,209.170
0.320,27.531,4.909,5.086,197.762,157.289,209.198
0.321,27.587,4.896,5.074,197.764,157.243,209.231
0.323,27.652,4.882,5.060,197.764,157.190,209.268
0.324,27.727,4.867,5.043,197.763,157.130,209.313
0.326,27.813,4.850,5.024,197.760,157.060,209.364
0.327,27.915,4.832,5.004,197.754,156.979,209.424
0.329,28.031,4.814,4.983,197.747,156.885,209.493
0.330,28.161,4.797,4.963,197.737,156.781,209.570
0.332,28.302,4.780,4.945,197.725,156.668,209.653
0.333,28.452,4.764,4.929,197.712,156.548,209.742
0.335,28.608,4.749,4.917,197.697,156.423,209.835
0.336,28.767,4.737,4.908,197.683,156.296,209.930
0.338,28.928,4.728,4.902,197.668,156.168,210.026
0.339,29.088,4.721,4.898,197.653,156.042,210.122
0.341,29.243,4.719,4.895,197.639,155.918,210.216
0.342,29.393,4.721,4.894,197.626,155.800,210.307
0.344,29.534,4.729,4.893,197.615,155.690,210.394
0.346,29.664,4.741,4.892,197.605,155.589,210.475
0.347,29.780,4.756,4.892,197.598,155.498,210.548
0.349,29.884,4.774,4.892,197.592,155.419,210.615
0.350,29.977,4.792,4.894,197.589,155.349,210.675
0.352,30.058,4.809,4.896,197.587,155.288,210.729
0.353,30.129,4.824,4.900,197.586,155.236,210.777
0.355,30.190,4.835,4.905,197.586,155.191,210.819
0.356,30.243,4.842,4.912,197.587,155.152,210.855
0.358,30.288,4.846,4.919,197.589,155.120,210.887
0.359,30.326,4.848,4.925,197.591,155.093,210.913
0.361,30.358,4.847,4.932,197.593,155.070,210.935
0.362,30.384,4.844,4.937,197.595,155.051,210.953
0.364,30.406,4.840,4.940,197.596,155.035,210.967
0.365,30.423,4.835,4.942,197.597,155.021,210.977
0.367,30.438,4.829,4.941,197.598,155.008,210.984
0.368,30.452,4.823,4.939,197.598,154.995,210.989
0.370,30.465,4.816,4.936,197.600,154.982,210.991
0.371,30.480,4.809,4.932,197.602,154.967,210.992
0.373,30.498,4.801,4.928,197.606,154.949,210.992
0.374,30.520,4.792,4.924,197.611,154.928,210.991
0.376,30.546,4.783,4.921,197.619,154.903,210.991
0.377,30.578,4.773,4.917,197.629,154.873,210.990
0.379,30.617,4.763,4.913,197.642,154.837,210.991
0.381,30.663,4.752,4.907,197.659,154.793,210.993
0.382,30.719,4.741,4.900,197.680,154.742,210.997
0.384,30.783,4.729,4.891,197.704,154.682,211.004
0.385,30.856,4.716,4.880,197.732,154.616,211.013
0.387,30.935,4.703,4.867,197.762,154.544,211.023
0.388,31.017,4.689,4.853,197.794,154.469,211.034
0.390,31.103,4.676,4.838,197.828,154.391,211.047
0.391,31.189,4.663,4.824,197.861,154.313,211.060
0.393,31.274,4.652,4.811,197.894,154.236,211.074
0.394,31.356,4.641,4.800,197.925,154.161,211.087
0.396,31.433,4.632,4.791,197.954,154.091,211.100
0.397,31.504,4.624,4.784,197.981,154.026,211.113
0.399,31.567,4.616,4.779,198.003,153.968,211.124
0.400,31.620,4.610,4.774,198.022,153.920,211.134
0.402,31.662,4.605,4.771,198.035,153.880,211.142
0.403,31.698,4.600,4.768,198.046,153.848,211.150
0.405,31.729,4.596,4.766,198.053,153.819,211.159
0.406,31.759,4.592,4.763,198.060,153.791,211.169
0.408,31.793,4.586,4.759,198.067,153.761,211.183
0.409,31.833,4.580,4.754,198.076,153.726,211.200
0.411,31.883,4.570,4.746,198.087,153.683,211.223
0.412,31.945,4.558,4.736,198.101,153.629,211.251
0.414,32.024,4.541,4.722,198.121,153.562,211.288
0.416,32.123,4.521,4.704,198.148,153.478,211.332
0.417,32.244,4.497,4.684,198.182,153.375,211.386
0.419,32.392,4.473,4.664,198.224,153.249,211.451
0.420,32.566,4.452,4.646,198.276,153.101,211.526
0.422,32.761,4.435,4.633,198.336,152.935,211.610
0.423,32.971,4.425,4.626,198.401,152.756,211.699
0.425,33.191,4.425,4.627,198.470,152.570,211.792
0.426,33.413,4.436,4.637,198.542,152.382,211.886
0.428,33.632,4.453,4.654,198.614,152.197,211.978
0.429,33.842,4.475,4.674,198.685,152.020,212.067
0.431,34.037,4.498,4.694,198.752,151.857,212.149
0.432,34.210,4.519,4.712,198.815,151.713,212.222
0.434,34.356,4.535,4.725,198.872,151.593,212.283
0.435,34.469,4.543,4.729,198.920,151.502,212.331
0.437,34.544,4.543,4.726,198.958,151.447,212.363
0.438,34.581,4.538,4.716,198.986,151.426,212.377
0.440,34.601,4.529,4.701,199.003,151.434,212.379
0.441,34.632,4.521,4.685,199.013,151.463,212.369
0.443,34.678,4.516,4.668,199.016,151.505,212.353
0.444,34.729,4.516,4.653,199.013,151.553,212.333
0.446,34.780,4.522,4.641,199.006,151.599,212.313
0.447,34.821,4.534,4.635,198.996,151.635,212.296
0.449,34.846,4.548,4.637,198.984,151.654,212.286
0.451,34.859,4.562,4.648,198.972,151.648,212.285
0.452,34.901,4.574,4.672,198.961,151.610,212.297
0.454,34.984,4.579,4.709,198.952,151.532,212.326
0.455,35.119,4.577,4.761,198.947,151.407,212.375
0.457,35.307,4.568,4.829,198.946,151.232,212.444
0.458,35.541,4.558,4.907,198.950,151.015,212.531
0.460,35.813,4.553,4.991,198.958,150.762,212.633
0.461,36.117,4.560,5.075,198.971,150.481,212.747
0.463,36.444,4.585,5.155,198.988,150.178,212.870
0.464,36.787,4.635,5.225,199.009,149.862,213.000
0.466,37.138,4.715,5.282,199.035,149.538,213.133
0.467,37.489,4.821,5.326,199.065,149.214,213.266
0.469,37.833,4.945,5.359,199.099,148.898,213.397
0.470,38.163,5.077,5.385,199.137,148.596,213.523
0.472,38.470,5.210,5.406,199.180,148.315,213.640
0.473,38.747,5.332,5.426,199.227,148.063,213.746
0.475,38.992,5.437,5.448,199.278,147.842,213.839
0.476,39.207,5.518,5.474,199.332,147.651,213.921
0.478,39.395,5.576,5.503,199.388,147.488,213.994
0.479,39.557,5.616,5.535,199.445,147.350,214.058
0.481,39.697,5.640,5.570,199.503,147.235,214.114
0.482,39.818,5.654,5.605,199.560,147.141,214.164
0.484,39.921,5.659,5.641,199.615,147.067,214.210
0.486,40.010,5.660,5.676,199.668,147.009,214.252
0.487,40.087,5.659,5.710,199.717,146.966,214.291
0.489,40.153,5.656,5.743,199.763,146.936,214.330
0.490,40.213,5.652,5.773,199.803,146.916,214.368
0.492,40.267,5.647,5.802,199.838,146.904,214.409
0.493,40.318,5.641,5.828,199.866,146.898,214.451
0.495,40.367,5.635,5.851,199.888,146.896,214.494
0.496,40.413,5.629,5.871,199.905,146.895,214.538
0.498,40.459,5.625,5.887,199.917,146.893,214.581
0.499,40.503,5.623,5.900,199.925,146.888,214.624
0.501,40.546,5.625,5.910,199.928,146.876,214.665
0.502,40.590,5.633,5.917,199.928,146.855,214.705
0.504,40.639,5.647,5.920,199.925,146.823,214.741
0.505,40.695,5.670,5.921,199.919,146.778,214.775
0.507,40.763,5.700,5.919,199.911,146.717,214.804
0.508,40.847,5.737,5.914,199.900,146.638,214.828
0.510,40.949,5.775,5.908,199.889,146.538,214.847
0.511,41.070,5.813,5.901,199.876,146.419,214.861
0.513,41.207,5.846,5.893,199.863,146.283,214.869
0.514,41.356,5.873,5.885,199.850,146.134,214.872
0.516,41.514,5.889,5.877,199.837,145.977,214.869
0.518,41.677,5.894,5.870,199.824,145.814,214.862
0.519,41.842,5.889,5.862,199.812,145.651,214.849
0.521,42.004,5.877,5.853,199.802,145.489,214.832
0.522,42.161,5.858,5.841,199.794,145.334,214.810
0.524,42.309,5.834,5.825,199.787,145.189,214.784
0.525,42.444,5.806,5.805,199.783,145.057,214.753
0.527,42.564,5.776,5.780,199.783,144.942,214.718
0.528,42.666,5.746,5.752,199.785,144.848,214.679
0.530,42.752,5.716,5.723,199.790,144.774,214.637
0.531,42.828,5.689,5.695,199.796,144.714,214.591
0.533,42.898,5.667,5.670,199.801,144.665,214.542
0.534,42.966,5.649,5.651,199.805,144.620,214.491
0.536,43.035,5.639,5.639,199.804,144.575,214.438
0.537,43.109,5.636,5.635,199.799,144.525,214.383
0.539,43.192,5.638,5.637,199.786,144.465,214.328
0.540,43.287,5.642,5.642,199.766,144.390,214.272
0.542,43.401,5.645,5.646,199.735,144.296,214.216
0.543,43.539,5.646,5.646,199.693,144.177,214.161
0.545,43.706,5.640,5.641,199.638,144.028,214.107
0.546,43.909,5.627,5.626,199.568,143.845,214.054
0.548,44.144,5.606,5.603,199.485,143.631,214.003
0.549,44.406,5.581,5.576,199.392,143.391,213.955
0.551,44.687,5.556,5.549,199.290,143.134,213.909
0.553,44.980,5.533,5.526,199.183,142.865,213.866
0.554,45.277,5.515,5.510,199.073,142.591,213.827
0.556,45.572,5.507,5.507,198.962,142.320,213.791
0.557,45.856,5.509,5.517,198.855,142.059,213.760
0.559,46.123,5.521,5.540,198.752,141.814,213.734
0.560,46.366,5.539,5.570,198.658,141.592,213.713
0.562,46.576,5.561,5.604,198.574,141.400,213.698
0.563,46.746,5.582,5.639,198.503,141.245,213.688
0.565,46.871,5.601,5.669,198.447,141.133,213.685
0.566,46.953,5.614,5.692,198.407,141.062,213.687
0.568,46.998,5.621,5.707,198.381,141.026,213.693
0.569,47.016,5.621,5.713,198.366,141.018,213.701
0.571,47.033,5.618,5.714,198.361,141.031,213.709
0.572,47.061,5.611,5.712,198.365,141.058,213.716
0.574,47.098,5.603,5.708,198.374,141.094,213.721
0.575,47.137,5.595,5.705,198.388,141.130,213.720
0.577,47.173,5.588,5.704,198.404,141.161,213.714
0.578,47.202,5.583,5.704,198.421,141.180,213.700
0.580,47.230,5.579,5.705,198.437,141.179,213.677
0.581,47.275,5.577,5.705,198.450,141.153,213.643
0.583,47.349,5.575,5.702,198.459,141.096,213.596
0.584,47.454,5.575,5.696,198.462,141.009,213.538
0.586,47.582,5.576,5.683,198.461,140.900,213.472
0.588,47.727,5.577,5.665,198.456,140.774,213.399
0.589,47.883,5.577,5.642,198.448,140.638,213.323
0.591,48.043,5.576,5.617,198.438,140.499,213.246
0.592,48.199,5.572,5.591,198.424,140.362,213.171
0.594,48.346,5.564,5.568,198.410,140.235,213.100
0.595,48.475,5.552,5.549,198.393,140.123,213.035
0.597,48.582,5.532,5.537,198.377,140.034,212.980
0.598,48.658,5.508,5.532,198.360,139.974,212.937
0.600,48.700,5.480,5.534,198.343,139.948,212.907
0.601,48.725,5.453,5.542,198.327,139.963,212.895
0.603,48.776,5.429,5.554,198.312,140.011,212.896
0.604,48.849,5.410,5.571,198.299,140.082,212.908
0.606,48.934,5.401,5.591,198.288,140.164,212.927
0.607,49.020,5.402,5.613,198.279,140.247,212.949
0.609,49.095,5.411,5.635,198.273,140.318,212.970
0.610,49.147,5.423,5.651,198.269,140.368,212.987
0.612,49.165,5.435,5.659,198.269,140.383,212.995
0.613,49.194,5.440,5.653,198.272,140.354,212.992
0.615,49.282,5.434,5.630,198.280,140.269,212.972
0.616,49.439,5.412,5.586,198.291,140.117,212.932
0.618,49.678,5.375,5.522,198.307,139.887,212.870
0.619,50.009,5.333,5.449,198.328,139.570,212.780
