"T","Distance","Radius","FreeRadius","X","Y","Z"
0.000,0.000,1.983,1.983,298.793,284.046,274.402
0.001,0.469,2.127,2.127,298.797,283.947,274.860
0.003,0.933,2.270,2.270,298.802,283.850,275.314
0.004,1.388,2.408,2.408,298.808,283.754,275.759
0.006,1.830,2.540,2.540,298.814,283.662,276.191
0.007,2.253,2.665,2.665,298.820,283.574,276.604
0.008,2.653,2.779,2.779,298.828,283.491,276.996
0.010,3.025,2.880,2.880,298.837,283.414,277.360
0.011,3.366,2.968,2.968,298.848,283.345,277.693
0.013,3.669,3.043,3.043,298.860,283.284,277.990
0.014,3.932,3.106,3.106,298.874,283.232,278.247
0.015,4.149,3.161,3.161,298.890,283.191,278.459
0.017,4.316,3.209,3.209,298.909,283.161,278.623
0.018,4.437,3.252,3.252,298.930,283.141,278.741
0.020,4.520,3.291,3.291,298.955,283.130,278.819
0.021,4.573,3.330,3.330,298.984,283.124,278.863
0.023,4.611,3.368,3.368,299.018,283.123,278.880
0.024,4.651,3.406,3.406,299.058,283.123,278.876
0.025,4.701,3.444,3.444,299.104,283.124,278.857
0.027,4.760,3.482,3.482,299.156,283.122,278.829
0.028,4.828,3.520,3.520,299.216,283.115,278.799
0.030,4.903,3.558,3.558,299.285,283.103,278.772
0.031,4.985,3.597,3.597,299.362,283.081,278.755
0.032,5.077,3.635,3.635,299.449,283.049,278.754
0.034,5.184,3.673,3.673,299.545,283.006,278.771
0.035,5.304,3.711,3.711,299.648,282.954,278.803
0.037,5.435,3.747,3.747,299.756,282.894,278.848
0.038,5.575,3.783,3.783,299.866,282.827,278.903
0.039,5.721,3.817,3.817,299.978,282.756,278.966
0.041,5.869,3.849,3.849,300.087,282.683,279.033
0.042,6.017,3.880,3.880,300.194,282.607,279.102
0.044,6.160,3.908,3.908,300.294,282.532,279.170
0.045,6.295,3.933,3.933,300.387,282.459,279.235
0.046,6.419,3.957,3.957,300.471,282.389,279.294
0.048,6.527,3.978,3.978,300.542,282.324,279.344
0.049,6.619,3.996,3.996,300.601,282.265,279.384
0.051,6.698,4.012,4.012,300.649,282.211,279.414
0.052,6.766,4.025,4.025,300.687,282.160,279.438
0.054,6.828,4.036,4.036,300.719,282.110,279.456
0.055,6.886,4.046,4.046,300.745,282.061,279.470
0.056,6.943,4.056,4.056,300.768,282.010,279.483
0.058,7.002,4.066,4.066,300.790,281.957,279.495
0.059,7.065,4.078,4.078,300.813,281.899,279.508
0.061,7.135,4.091,4.091,300.839,281.836,279.524
0.062,7.215,4.108,4.108,300.869,281.765,279.546
0.063,7.307,4.127,4.127,300.906,281.686,279.574
0.065,7.414,4.150,4.150,300.952,281.596,279.610
0.066,7.535,4.178,4.178,301.006,281.497,279.653
0.068,7.669,4.211,4.211,301.067,281.388,279.704
0.069,7.817,4.249,4.249,301.133,281.269,279.759
0.070,7.976,4.293,4.293,301.205,281.140,279.820
0.072,8.146,4.344,4.344,301.281,281.003,279.884
0.073,8.325,4.402,4.402,301.359,280.855,279.951
0.075,8.514,4.467,4.467,301.440,280.699,280.020
0.076,8.711,4.540,4.540,301.521,280.535,280.089
0.077,8.914,4.622,4.622,301.603,280.361,280.158
0.079,9.125,4.713,4.713,301.683,280.179,280.226
0.080,9.341,4.813,4.813,301.761,279.989,280.292
0.082,9.560,4.923,4.923,301.837,279.793,280.355
0.083,9.781,5.041,5.041,301.909,279.593,280.416
0.085,10.000,5.161,5.161,301.979,279.393,280.473
0.086,10.214,5.280,5.280,302.044,279.197,280.527
0.087,10.421,5.393,5.393,302.105,279.006,280.578
0.089,10.616,5.495,5.495,302.162,278.825,280.624
0.090,10.799,5.582,5.582,302.214,278.655,280.667
0.092,10.964,5.650,5.650,302.261,278.501,280.705
0.093,11.110,5.697,5.697,302.303,278.365,280.739
0.094,11.234,5.729,5.729,302.338,278.251,280.769
0.096,11.332,5.748,5.748,302.368,278.160,280.793
0.097,11.404,5.758,5.758,302.391,278.095,280.812
0.099,11.453,5.765,5.765,302.409,278.052,280.827
0.100,11.482,5.771,5.771,302.421,278.028,280.838
0.101,11.495,5.780,5.780,302.430,278.021,280.845
0.103,11.504,5.795,5.795,302.435,278.027,280.849
0.104,11.521,5.814,5.814,302.438,278.044,280.851
0.106,11.546,5.836,5.836,302.438,278.069,280.850
0.107,11.576,5.858,5.858,302.436,278.099,280.847
0.108,11.608,5.879,5.879,302.434,278.130,280.843
0.110,11.638,5.898,5.898,302.431,278.160,280.838
0.111,11.665,5.911,5.911,302.429,278.187,280.833
0.113,11.687,5.918,5.918,302.428,278.207,280.828
0.114,11.702,5.921,5.921,302.428,278.222,280.823
0.115,11.712,5.919,5.919,302.429,278.231,280.818
0.117,11.718,5.915,5.915,302.431,278.235,280.815
0.118,11.722,5.910,5.910,302.434,278.235,280.812
0.120,11.728,5.904,5.904,302.438,278.230,280.811
0.121,11.738,5.899,5.899,302.444,278.222,280.811
0.123,11.751,5.895,5.895,302.450,278.212,280.813
0.124,11.767,5.894,5.894,302.458,278.198,280.817
0.125,11.786,5.894,5.894,302.467,278.183,280.824
0.127,11.807,5.895,5.895,302.477,278.166,280.834
0.128,11.832,5.896,5.896,302.488,278.149,280.846
0.130,11.859,5.898,5.898,302.501,278.130,280.861
0.131,11.889,5.899,5.899,302.514,278.110,280.879
0.132,11.921,5.899,5.899,302.529,278.090,280.900
0.134,11.956,5.899,5.899,302.543,278.069,280.923
0.135,11.993,5.897,5.897,302.558,278.047,280.949
0.137,12.032,5.895,5.895,302.573,278.024,280.977
0.138,12.073,5.891,5.891,302.588,278.001,281.007
0.139,12.116,5.886,5.886,302.602,277.977,281.040
0.141,12.160,5.880,5.880,302.616,277.952,281.074
0.142,12.206,5.872,5.872,302.629,277.927,281.111
0.144,12.254,5.864,5.864,302.641,277.902,281.149
0.145,12.302,5.854,5.854,302.652,277.876,281.188
0.146,12.350,5.845,5.845,302.661,277.850,281.228
0.148,12.397,5.835,5.835,302.669,277.825,281.266
0.149,12.441,5.827,5.827,302.675,277.802,281.303
0.151,12.481,5.819,5.819,302.679,277.780,281.337
0.152,12.517,5.814,5.814,302.680,277.761,281.368
0.154,12.548,5.810,5.810,302.679,277.744,281.393
0.155,12.572,5.807,5.807,302.675,277.731,281.413
0.156,12.590,5.806,5.806,302.669,277.722,281.427
0.158,12.602,5.805,5.805,302.659,277.717,281.432
0.159,12.616,5.805,5.805,302.645,277.717,281.429
0.161,12.636,5.804,5.804,302.629,277.721,281.419
0.162,12.660,5.803,5.803,302.610,277.727,281.405
0.163,12.683,5.801,5.801,302.592,277.732,281.392
0.165,12.703,5.798,5.798,302.573,277.734,281.386
0.166,12.720,5.792,5.792,302.557,277.731,281.389
0.168,12.745,5.785,5.785,302.545,277.720,281.408
0.169,12.791,5.774,5.774,302.536,277.697,281.447
0.170,12.863,5.760,5.760,302.534,277.662,281.510
0.172,12.969,5.743,5.743,302.540,277.611,281.603
0.173,13.113,5.722,5.722,302.553,277.542,281.729
0.175,13.302,5.700,5.700,302.577,277.452,281.893
0.176,13.537,5.680,5.680,302.611,277.340,282.098
0.177,13.814,5.667,5.667,302.655,277.209,282.337
0.179,14.123,5.662,5.662,302.707,277.063,282.604
0.180,14.454,5.670,5.670,302.766,276.907,282.891
0.182,14.801,5.693,5.693,302.829,276.743,283.189
0.183,15.152,5.733,5.733,302.895,276.576,283.492
0.185,15.501,5.789,5.789,302.963,276.411,283.791
0.186,15.838,5.855,5.855,303.031,276.251,284.080
0.187,16.154,5.926,5.926,303.098,276.100,284.350
0.189,16.441,5.999,5.999,303.161,275.962,284.593
0.190,16.690,6.068,6.068,303.220,275.842,284.803
0.192,16.893,6.129,6.129,303.273,275.742,284.972
0.193,17.052,6.179,6.179,303.319,275.663,285.102
0.194,17.173,6.216,6.216,303.360,275.601,285.197
0.196,17.260,6.242,6.242,303.395,275.555,285.263
0.197,17.322,6.259,6.259,303.426,275.522,285.304
0.199,17.363,6.269,6.269,303.453,275.499,285.326
0.200,17.392,6.273,6.273,303.476,275.484,285.333
0.201,17.414,6.273,6.273,303.496,275.474,285.331
0.203,17.433,6.272,6.272,303.513,275.467,285.325
0.204,17.451,6.269,6.269,303.528,275.460,285.319
0.206,17.467,6.265,6.265,303.541,275.451,285.319
0.207,17.488,6.263,6.263,303.553,275.437,285.330
0.208,17.520,6.262,6.262,303.565,275.418,285.352
0.210,17.563,6.264,6.264,303.576,275.394,285.386
0.211,17.614,6.270,6.270,303.587,275.366,285.427
0.213,17.673,6.280,6.280,303.599,275.335,285.475
0.214,17.736,6.294,6.294,303.613,275.302,285.528
0.215,17.803,6.311,6.311,303.627,275.267,285.584
0.217,17.872,6.329,6.329,303.644,275.233,285.640
0.218,17.939,6.346,6.346,303.663,275.198,285.695
0.220,18.005,6.361,6.361,303.686,275.165,285.748
0.221,18.067,6.371,6.371,303.711,275.135,285.795
0.223,18.124,6.377,6.377,303.740,275.107,285.835
0.224,18.177,6.376,6.376,303.774,275.083,285.868
0.225,18.227,6.371,6.371,303.810,275.061,285.896
0.227,18.278,6.364,6.364,303.849,275.041,285.922
0.228,18.330,6.357,6.357,303.889,275.021,285.948
0.230,18.385,6.353,6.353,303.930,275.001,285.978
0.231,18.443,6.352,6.352,303.970,274.980,286.015
0.232,18.508,6.359,6.359,304.010,274.956,286.060
0.234,18.582,6.374,6.374,304.048,274.928,286.117
0.235,18.669,6.396,6.396,304.084,274.896,286.189
0.237,18.771,6.425,6.425,304.116,274.858,286.279
0.238,18.893,6.460,6.460,304.144,274.814,286.389
0.239,19.036,6.499,6.499,304.167,274.762,286.521
0.241,19.199,6.542,6.542,304.187,274.705,286.672
0.242,19.378,6.587,6.587,304.207,274.644,286.839
0.244,19.568,6.634,6.634,304.227,274.581,287.017
0.245,19.765,6.680,6.680,304.250,274.517,287.202
0.246,19.966,6.725,6.725,304.279,274.456,287.391
0.248,20.165,6.767,6.767,304.315,274.398,287.579
0.249,20.361,6.804,6.804,304.361,274.346,287.761
0.251,20.550,6.834,6.834,304.418,274.302,287.935
0.252,20.729,6.857,6.857,304.488,274.267,288.097
0.254,20.899,6.870,6.870,304.575,274.243,288.241
0.255,21.060,6.874,6.874,304.679,274.233,288.364
0.256,21.218,6.872,6.871,304.799,274.234,288.467
0.258,21.376,6.865,6.865,304.931,274.247,288.551
0.259,21.535,6.856,6.855,305.073,274.267,288.619
0.261,21.694,6.846,6.846,305.221,274.294,288.674
0.262,21.853,6.838,6.838,305.370,274.326,288.716
0.263,22.009,6.834,6.835,305.519,274.359,288.750
0.265,22.159,6.835,6.835,305.663,274.393,288.776
0.266,22.300,6.839,6.839,305.799,274.425,288.798
0.268,22.429,6.845,6.846,305.923,274.453,288.817
0.269,22.542,6.854,6.854,306.032,274.476,288.837
0.270,22.637,6.863,6.863,306.123,274.490,288.858
0.272,22.713,6.872,6.872,306.195,274.496,288.882
0.273,22.774,6.880,6.880,306.250,274.495,288.909
0.275,22.826,6.887,6.886,306.293,274.488,288.937
0.276,22.870,6.892,6.890,306.325,274.477,288.965
0.277,22.910,6.895,6.893,306.350,274.462,288.993
0.279,22.947,6.896,6.894,306.372,274.447,289.019
0.280,22.982,6.895,6.893,306.392,274.431,289.043
0.282,23.016,6.892,6.891,306.414,274.417,289.063
0.283,23.049,6.887,6.887,306.442,274.405,289.078
0.285,23.087,6.879,6.881,306.478,274.397,289.089
0.286,23.134,6.869,6.874,306.525,274.395,289.093
0.287,23.195,6.858,6.866,306.585,274.400,289.090
0.289,23.267,6.846,6.857,306.656,274.410,289.082
0.290,23.350,6.834,6.848,306.736,274.425,289.067
0.292,23.442,6.822,6.838,306.824,274.444,289.049
0.293,23.539,6.811,6.828,306.916,274.466,289.026
0.294,23.640,6.802,6.817,307.011,274.490,289.000
0.296,23.743,6.793,6.807,307.106,274.515,288.972
0.297,23.844,6.786,6.798,307.200,274.541,288.942
0.299,23.942,6.781,6.789,307.290,274.566,288.912
0.300,24.034,6.776,6.782,307.373,274.589,288.882
0.301,24.118,6.773,6.775,307.449,274.610,288.852
0.303,24.191,6.770,6.770,307.514,274.628,288.824
0.304,24.256,6.768,6.767,307.571,274.643,288.797
0.306,24.313,6.767,6.765,307.621,274.655,288.773
0.307,24.365,6.765,6.763,307.666,274.667,288.750
0.308,24.415,6.764,6.762,307.710,274.678,288.728
0.310,24.464,6.761,6.760,307.753,274.689,288.709
0.311,24.514,6.757,6.758,307.798,274.701,288.691
0.313,24.568,6.752,6.753,307.848,274.715,288.675
0.314,24.628,6.745,6.747,307.904,274.731,288.661
0.315,24.696,6.735,6.738,307.969,274.750,288.649
0.317,24.776,6.725,6.728,308.045,274.773,288.638
0.318,24.870,6.713,6.716,308.133,274.800,288.630
0.320,24.976,6.702,6.704,308.234,274.832,288.624
0.321,25.092,6.691,6.692,308.345,274.868,288.619
0.323,25.216,6.680,6.681,308.463,274.906,288.616
0.324,25.345,6.671,6.671,308.586,274.945,288.614
0.325,25.476,6.664,6.661,308.711,274.985,288.614
0.327,25.607,6.658,6.654,308.835,275.025,288.615
0.328,25.734,6.653,6.648,308.956,275.063,288.618
0.330,25.855,6.649,6.643,309.072,275.100,288.621
0.331,25.968,6.646,6.641,309.180,275.133,288.626
0.332,26.070,6.643,6.640,309.277,275.162,288.631
0.334,26.157,6.640,6.642,309.361,275.186,288.637
0.335,26.229,6.638,6.645,309.430,275.204,288.643
0.337,26.287,6.635,6.650,309.486,275.218,288.650
0.338,26.331,6.632,6.654,309.529,275.228,288.657
0.339,26.364,6.628,6.658,309.560,275.235,288.664
0.341,26.387,6.624,6.660,309.581,275.239,288.671
0.342,26.400,6.619,6.659,309.592,275.241,288.678
0.344,26.406,6.612,6.654,309.595,275.242,288.683
0.345,26.413,6.604,6.646,309.590,275.243,288.688
0.346,26.425,6.596,6.634,309.579,275.244,288.692
0.348,26.443,6.589,6.622,309.561,275.246,288.694
0.349,26.465,6.583,6.608,309.540,275.250,288.695
0.351,26.490,6.579,6.596,309.515,275.257,288.695
0.352,26.517,6.578,6.587,309.489,275.265,288.693
0.354,26.543,6.581,6.581,309.465,275.274,288.691
0.355,26.565,6.588,6.580,309.445,275.283,288.690
0.356,26.581,6.598,6.582,309.432,275.292,288.689
0.358,26.590,6.606,6.586,309.428,275.299,288.691
0.359,26.600,6.612,6.590,309.435,275.305,288.694
0.361,26.623,6.612,6.592,309.458,275.308,288.700
0.362,26.664,6.604,6.590,309.497,275.308,288.710
0.363,26.724,6.585,6.583,309.555,275.304,288.725
0.365,26.807,6.554,6.569,309.635,275.294,288.744
0.366,26.916,6.509,6.547,309.740,275.280,288.769
0.368,27.048,6.453,6.518,309.868,275.260,288.799
0.369,27.202,6.388,6.481,310.016,275.234,288.833
0.370,27.376,6.315,6.437,310.182,275.203,288.870
0.372,27.566,6.236,6.384,310.364,275.165,288.910
0.373,27.770,6.153,6.323,310.559,275.122,288.951
0.375,27.985,6.066,6.255,310.765,275.074,288.993
0.376,28.210,5.977,6.179,310.979,275.019,289.035
0.377,28.442,5.889,6.099,311.199,274.959,289.076
0.379,28.678,5.803,6.017,311.422,274.893,289.116
0.380,28.916,5.719,5.935,311.645,274.821,289.152
0.382,29.153,5.640,5.855,311.868,274.743,289.185
0.383,29.389,5.567,5.779,312.086,274.660,289.215
0.385,29.620,5.501,5.710,312.299,274.574,289.240
0.386,29.846,5.444,5.649,312.506,274.485,289.263
0.387,30.064,5.393,5.594,312.704,274.396,289.283
0.389,30.272,5.349,5.546,312.892,274.308,289.301
0.390,30.469,5.311,5.504,313.068,274.222,289.316
0.392,30.653,5.278,5.466,313.232,274.140,289.330
0.393,30.821,5.250,5.433,313.381,274.064,289.343
0.394,30.971,5.224,5.404,313.514,273.994,289.355
0.396,31.102,5.202,5.378,313.629,273.933,289.366
0.397,31.212,5.183,5.355,313.725,273.881,289.377
0.399,31.299,5.167,5.336,313.801,273.840,289.387
0.400,31.366,5.155,5.321,313.859,273.809,289.397
0.401,31.415,5.146,5.309,313.902,273.786,289.406
0.403,31.448,5.141,5.302,313.930,273.770,289.413
0.404,31.467,5.139,5.299,313.946,273.760,289.419
0.406,31.476,5.141,5.300,313.952,273.755,289.421
0.407,31.478,5.146,5.303,313.950,273.755,289.421
0.408,31.487,5.153,5.309,313.941,273.756,289.417
0.410,31.503,5.162,5.314,313.929,273.760,289.409
0.411,31.523,5.172,5.319,313.914,273.764,289.396
0.413,31.546,5.183,5.321,313.899,273.767,289.379
0.414,31.573,5.194,5.319,313.885,273.768,289.356
0.415,31.601,5.203,5.313,313.875,273.766,289.330
0.417,31.630,5.210,5.301,313.870,273.759,289.302
0.418,31.661,5.212,5.284,313.873,273.745,289.275
0.420,31.696,5.208,5.260,313.886,273.722,289.250
0.421,31.741,5.197,5.229,313.909,273.689,289.230
0.423,31.801,5.175,5.190,313.946,273.644,289.217
0.424,31.879,5.142,5.144,313.998,273.586,289.213
0.425,31.981,5.096,5.090,314.067,273.512,289.219
0.427,32.109,5.039,5.029,314.156,273.421,289.238
0.428,32.267,4.975,4.965,314.265,273.312,289.272
0.430,32.458,4.906,4.899,314.397,273.183,289.323
0.431,32.679,4.837,4.833,314.548,273.036,289.389
0.432,32.924,4.771,4.772,314.715,272.876,289.467
0.434,33.183,4.711,4.716,314.892,272.707,289.555
0.435,33.452,4.661,4.668,315.075,272.534,289.648
0.437,33.722,4.622,4.629,315.258,272.360,289.745
0.438,33.986,4.591,4.597,315.436,272.192,289.842
0.439,34.237,4.569,4.573,315.605,272.032,289.937
0.441,34.467,4.552,4.555,315.760,271.886,290.025
0.442,34.671,4.540,4.542,315.896,271.757,290.104
0.444,34.839,4.532,4.534,316.007,271.650,290.172
0.445,34.966,4.525,4.529,316.090,271.570,290.224
0.446,35.050,4.520,4.527,316.144,271.517,290.261
0.448,35.097,4.516,4.528,316.173,271.487,290.285
0.449,35.115,4.512,4.530,316.181,271.477,290.296
0.451,35.124,4.509,4.532,316.174,271.481,290.297
0.452,35.148,4.507,4.535,316.155,271.496,290.291
0.454,35.184,4.504,4.537,316.130,271.518,290.279
0.455,35.224,4.502,4.537,316.104,271.544,290.262
0.456,35.263,4.500,4.536,316.080,271.567,290.244
0.458,35.293,4.498,4.534,316.063,271.586,290.226
0.459,35.312,4.497,4.531,316.058,271.595,290.211
0.461,35.330,4.496,4.528,316.070,271.591,290.199
0.462,35.367,4.497,4.526,316.100,271.572,290.192
0.463,35.423,4.500,4.526,316.146,271.539,290.191
0.465,35.495,4.504,4.527,316.204,271.496,290.194
0.466,35.577,4.510,4.530,316.269,271.446,290.200
0.468,35.665,4.517,4.535,316.337,271.391,290.211
0.469,35.753,4.524,4.540,316.404,271.335,290.224
0.470,35.837,4.530,4.545,316.465,271.281,290.239
0.472,35.911,4.533,4.549,316.518,271.232,290.256
0.473,35.971,4.534,4.551,316.557,271.191,290.274
0.475,36.013,4.529,4.549,316.579,271.160,290.293
0.476,36.039,4.520,4.544,316.580,271.142,290.312
0.477,36.069,4.506,4.535,316.556,271.141,290.331
0.479,36.116,4.488,4.525,316.513,271.153,290.348
0.480,36.176,4.469,4.514,316.459,271.173,290.362
0.482,36.239,4.449,4.503,316.403,271.198,290.373
0.483,36.296,4.430,4.493,316.351,271.222,290.380
0.485,36.340,4.412,4.486,316.312,271.242,290.381
0.486,36.362,4.397,4.482,316.294,271.254,290.375
0.487,36.379,4.386,4.483,316.304,271.252,290.362
0.489,36.435,4.380,4.489,316.351,271.232,290.340
0.490,36.540,4.379,4.500,316.443,271.191,290.309
0.492,36.705,4.385,4.518,316.587,271.123,290.267
0.493,36.937,4.398,4.542,316.791,271.025,290.213
0.494,37.234,4.419,4.574,317.052,270.899,290.150
0.496,37.582,4.449,4.613,317.358,270.749,290.077
0.497,37.970,4.487,4.660,317.699,270.581,290.000
0.499,38.386,4.533,4.712,318.065,270.401,289.918
0.500,38.817,4.584,4.766,318.444,270.213,289.836
0.501,39.250,4.640,4.820,318.825,270.025,289.755
0.503,39.674,4.699,4.873,319.199,269.840,289.677
0.504,40.077,4.760,4.922,319.555,269.665,289.605
0.506,40.445,4.821,4.964,319.880,269.505,289.542
0.507,40.767,4.882,5.001,320.166,269.366,289.490
0.508,41.031,4.941,5.032,320.400,269.252,289.450
0.510,41.232,4.997,5.059,320.581,269.166,289.424
0.511,41.378,5.047,5.085,320.712,269.105,289.411
0.513,41.475,5.092,5.110,320.801,269.065,289.410
0.514,41.532,5.129,5.136,320.854,269.044,289.419
0.515,41.563,5.157,5.166,320.877,269.039,289.437
0.517,41.589,5.176,5.198,320.878,269.046,289.462
0.518,41.628,5.187,5.234,320.863,269.062,289.494
0.520,41.677,5.193,5.270,320.838,269.083,289.531
0.521,41.733,5.194,5.307,320.809,269.107,289.572
0.523,41.788,5.194,5.342,320.784,269.130,289.616
0.524,41.840,5.193,5.374,320.769,269.150,289.661
0.525,41.887,5.194,5.402,320.768,269.163,289.706
0.527,41.935,5.198,5.426,320.781,269.170,289.752
0.528,41.986,5.206,5.445,320.806,269.172,289.797
0.530,42.043,5.215,5.460,320.841,269.169,289.842
0.531,42.105,5.227,5.472,320.884,269.163,289.886
0.532,42.172,5.241,5.481,320.934,269.153,289.929
0.534,42.242,5.255,5.489,320.988,269.141,289.971
0.535,42.314,5.271,5.495,321.046,269.127,290.013
0.537,42.387,5.287,5.501,321.104,269.112,290.053
0.538,42.458,5.303,5.507,321.162,269.097,290.091
0.539,42.526,5.319,5.512,321.218,269.082,290.127
0.541,42.589,5.336,5.518,321.269,269.068,290.162
0.542,42.648,5.352,5.524,321.316,269.055,290.195
0.544,42.703,5.369,5.530,321.359,269.045,290.227
0.545,42.753,5.385,5.536,321.399,269.036,290.257
0.546,42.801,5.401,5.544,321.435,269.030,290.287
0.548,42.846,5.416,5.552,321.469,269.027,290.317
0.549,42.889,5.429,5.561,321.500,269.026,290.347
0.551,42.931,5.441,5.571,321.529,269.030,290.377
0.552,42.973,5.451,5.583,321.557,269.037,290.408
0.554,43.016,5.457,5.597,321.583,269.048,290.440
0.555,43.061,5.460,5.613,321.608,269.064,290.473
0.556,43.108,5.459,5.630,321.633,269.084,290.508
0.558,43.159,5.454,5.650,321.659,269.108,290.546
0.559,43.213,5.448,5.670,321.686,269.132,290.585
0.561,43.269,5.443,5.690,321.717,269.154,290.625
0.562,43.327,5.440,5.709,321.753,269.172,290.668
0.563,43.389,5.442,5.725,321.795,269.182,290.712
0.565,43.457,5.451,5.739,321.845,269.183,290.758
0.566,43.534,5.469,5.748,321.905,269.170,290.805
0.568,43.625,5.496,5.754,321.976,269.142,290.853
0.569,43.732,5.531,5.759,322.059,269.096,290.903
0.570,43.861,5.574,5.767,322.157,269.030,290.954
0.572,44.014,5.623,5.778,322.269,268.939,291.006
0.573,44.194,5.677,5.798,322.397,268.825,291.059
