"T","Distance","Radius","FreeRadius","X","Y","Z"
0.000,0.000,3.582,3.582,228.511,216.148,224.514
0.001,0.155,3.646,3.646,228.631,216.172,224.419
0.003,0.308,3.710,3.710,228.750,216.196,224.325
0.004,0.460,3.772,3.772,228.867,216.219,224.232
0.005,0.609,3.834,3.834,228.983,216.243,224.141
0.006,0.754,3.894,3.894,229.095,216.267,224.052
0.008,0.894,3.952,3.952,229.204,216.291,223.967
0.009,1.029,4.007,4.007,229.308,216.315,223.885
0.010,1.157,4.060,4.060,229.407,216.339,223.809
0.012,1.277,4.110,4.110,229.500,216.364,223.737
0.013,1.388,4.157,4.157,229.586,216.389,223.671
0.014,1.490,4.201,4.201,229.665,216.414,223.611
0.016,1.581,4.242,4.242,229.736,216.439,223.559
0.017,1.663,4.280,4.280,229.799,216.464,223.514
0.018,1.735,4.315,4.315,229.854,216.489,223.474
0.019,1.798,4.348,4.348,229.901,216.513,223.441
0.021,1.852,4.377,4.377,229.942,216.536,223.413
0.022,1.898,4.404,4.404,229.976,216.557,223.390
0.023,1.937,4.428,4.428,230.004,216.576,223.371
0.025,1.969,4.448,4.448,230.027,216.593,223.356
0.026,1.995,4.465,4.465,230.044,216.608,223.344
0.027,2.014,4.479,4.479,230.056,216.619,223.335
0.029,2.027,4.488,4.488,230.064,216.626,223.328
0.030,2.035,4.494,4.494,230.068,216.630,223.322
0.031,2.039,4.496,4.496,230.069,216.630,223.318
0.032,2.044,4.495,4.495,230.067,216.628,223.315
0.034,2.050,4.491,4.491,230.063,216.623,223.312
0.035,2.057,4.486,4.486,230.059,216.617,223.311
0.036,2.064,4.482,4.482,230.055,216.612,223.310
0.038,2.069,4.478,4.478,230.052,216.607,223.310
0.039,2.072,4.476,4.476,230.052,216.605,223.311
0.040,2.075,4.477,4.477,230.054,216.606,223.312
0.042,2.083,4.483,4.483,230.061,216.610,223.314
0.043,2.098,4.492,4.492,230.073,216.619,223.316
0.044,2.122,4.505,4.505,230.090,216.635,223.319
0.045,2.154,4.521,4.521,230.115,216.656,223.321
0.047,2.195,4.539,4.539,230.146,216.683,223.323
0.048,2.243,4.559,4.559,230.183,216.714,223.324
0.049,2.298,4.580,4.580,230.226,216.746,223.322
0.051,2.357,4.603,4.603,230.275,216.779,223.318
0.052,2.420,4.625,4.625,230.329,216.811,223.310
0.053,2.488,4.647,4.647,230.389,216.841,223.298
0.055,2.559,4.668,4.668,230.453,216.867,223.280
0.056,2.635,4.687,4.687,230.522,216.887,223.257
0.057,2.715,4.704,4.704,230.595,216.899,223.227
0.058,2.801,4.717,4.717,230.672,216.903,223.189
0.060,2.894,4.726,4.726,230.753,216.897,223.144
0.061,2.994,4.731,4.731,230.837,216.882,223.091
0.062,3.101,4.730,4.730,230.923,216.858,223.033
0.064,3.211,4.726,4.726,231.009,216.828,222.971
0.065,3.323,4.718,4.718,231.094,216.793,222.907
0.066,3.435,4.709,4.709,231.178,216.754,222.843
0.068,3.546,4.699,4.699,231.259,216.714,222.780
0.069,3.651,4.688,4.688,231.336,216.674,222.720
0.070,3.749,4.679,4.679,231.408,216.636,222.665
0.071,3.838,4.672,4.672,231.474,216.600,222.617
0.073,3.915,4.667,4.667,231.532,216.569,222.577
0.074,3.979,4.665,4.665,231.582,216.545,222.547
0.075,4.028,4.664,4.664,231.623,216.527,222.527
0.077,4.065,4.664,4.664,231.656,216.514,222.515
0.078,4.093,4.665,4.665,231.683,216.507,222.511
0.079,4.115,4.668,4.668,231.704,216.503,222.510
0.081,4.132,4.670,4.670,231.721,216.503,222.513
0.082,4.146,4.673,4.673,231.735,216.504,222.517
0.083,4.158,4.676,4.676,231.746,216.505,222.520
0.084,4.169,4.679,4.679,231.757,216.507,222.520
0.086,4.180,4.682,4.682,231.768,216.507,222.515
0.087,4.196,4.686,4.686,231.779,216.506,222.504
0.088,4.221,4.691,4.691,231.793,216.500,222.485
0.090,4.256,4.697,4.697,231.811,216.492,222.456
0.091,4.300,4.705,4.705,231.833,216.480,222.419
0.092,4.354,4.713,4.713,231.861,216.466,222.376
0.094,4.415,4.720,4.720,231.897,216.452,222.328
0.095,4.483,4.726,4.726,231.940,216.439,222.277
0.096,4.558,4.729,4.729,231.994,216.428,222.225
0.097,4.641,4.727,4.727,232.058,216.420,222.175
0.099,4.731,4.719,4.719,232.134,216.416,222.127
0.100,4.831,4.703,4.703,232.224,216.418,222.083
0.101,4.942,4.677,4.677,232.328,216.426,222.046
0.103,5.066,4.642,4.642,232.448,216.442,222.016
0.104,5.207,4.600,4.600,232.585,216.468,221.997
0.105,5.363,4.555,4.555,232.737,216.502,221.987
0.106,5.531,4.510,4.510,232.900,216.543,221.985
0.108,5.710,4.467,4.467,233.072,216.590,221.990
0.109,5.895,4.431,4.431,233.250,216.642,222.001
0.110,6.084,4.404,4.404,233.430,216.698,222.017
0.112,6.273,4.389,4.389,233.609,216.755,222.036
0.113,6.459,4.387,4.387,233.783,216.814,222.058
0.114,6.637,4.395,4.395,233.951,216.872,222.080
0.116,6.805,4.412,4.412,234.107,216.929,222.103
0.117,6.959,4.433,4.433,234.250,216.983,222.124
0.118,7.096,4.458,4.458,234.376,217.033,222.142
0.119,7.214,4.482,4.482,234.484,217.078,222.158
0.121,7.316,4.505,4.505,234.576,217.119,222.172
0.122,7.405,4.522,4.522,234.655,217.157,222.185
0.123,7.482,4.534,4.534,234.724,217.190,222.198
0.125,7.551,4.543,4.543,234.784,217.220,222.214
0.126,7.614,4.548,4.548,234.837,217.248,222.232
0.127,7.674,4.552,4.552,234.887,217.273,222.254
0.129,7.734,4.555,4.555,234.936,217.296,222.281
0.130,7.797,4.558,4.558,234.985,217.317,222.314
0.131,7.867,4.564,4.564,235.038,217.337,222.355
0.132,7.945,4.571,4.571,235.097,217.356,222.403
0.134,8.035,4.581,4.581,235.163,217.374,222.461
0.135,8.134,4.591,4.591,235.237,217.393,222.524
0.136,8.242,4.601,4.601,235.320,217.411,222.591
0.138,8.358,4.610,4.610,235.412,217.431,222.658
0.139,8.480,4.616,4.616,235.514,217.453,222.723
0.140,8.608,4.619,4.619,235.625,217.477,222.782
0.142,8.743,4.618,4.618,235.746,217.504,222.832
0.143,8.884,4.612,4.612,235.878,217.535,222.871
0.144,9.033,4.603,4.603,236.021,217.570,222.896
0.145,9.192,4.596,4.596,236.176,217.609,222.903
0.147,9.365,4.592,4.592,236.342,217.654,222.890
0.148,9.554,4.596,4.596,236.520,217.704,222.854
0.149,9.758,4.610,4.610,236.708,217.760,222.796
0.151,9.976,4.636,4.636,236.904,217.819,222.720
0.152,10.206,4.679,4.679,237.104,217.882,222.628
0.153,10.442,4.738,4.738,237.307,217.947,222.523
0.155,10.683,4.811,4.811,237.509,218.012,222.410
0.156,10.924,4.894,4.894,237.707,218.078,222.289
0.157,11.162,4.985,4.985,237.899,218.142,222.165
0.158,11.392,5.079,5.079,238.083,218.204,222.041
0.160,11.610,5.175,5.175,238.254,218.262,221.919
0.161,11.813,5.267,5.267,238.412,218.315,221.803
0.162,11.997,5.354,5.354,238.553,218.363,221.695
0.164,12.160,5.434,5.434,238.676,218.405,221.597
0.165,12.302,5.506,5.506,238.782,218.442,221.509
0.166,12.427,5.570,5.570,238.873,218.474,221.431
0.168,12.535,5.626,5.626,238.951,218.501,221.361
0.169,12.628,5.673,5.673,239.016,218.523,221.299
0.170,12.707,5.711,5.711,239.071,218.543,221.245
0.171,12.773,5.740,5.740,239.116,218.559,221.199
0.173,12.829,5.761,5.761,239.153,218.573,221.159
0.174,12.875,5.772,5.772,239.183,218.584,221.126
0.175,12.913,5.778,5.778,239.208,218.594,221.099
0.177,12.945,5.778,5.778,239.229,218.603,221.078
0.178,12.970,5.776,5.776,239.247,218.611,221.062
0.179,12.992,5.772,5.772,239.263,218.619,221.050
0.181,13.010,5.768,5.768,239.277,218.626,221.042
0.182,13.025,5.765,5.765,239.290,218.633,221.037
0.183,13.039,5.766,5.766,239.302,218.639,221.034
0.184,13.052,5.770,5.770,239.313,218.646,221.032
0.186,13.064,5.776,5.776,239.323,218.653,221.032
0.187,13.077,5.784,5.784,239.334,218.660,221.031
0.188,13.091,5.793,5.793,239.345,218.668,221.030
0.190,13.105,5.804,5.804,239.357,218.676,221.028
0.191,13.122,5.815,5.815,239.370,218.685,221.023
0.192,13.141,5.826,5.826,239.385,218.695,221.016
0.194,13.161,5.837,5.837,239.400,218.705,221.007
0.195,13.183,5.846,5.846,239.417,218.715,220.997
0.196,13.206,5.854,5.854,239.434,218.724,220.986
0.197,13.227,5.860,5.860,239.450,218.733,220.975
0.199,13.246,5.863,5.863,239.466,218.739,220.965
0.200,13.263,5.863,5.863,239.480,218.743,220.957
0.201,13.276,5.858,5.858,239.492,218.744,220.952
0.203,13.286,5.850,5.850,239.501,218.742,220.951
0.204,13.295,5.837,5.837,239.508,218.736,220.954
0.205,13.309,5.822,5.822,239.511,218.726,220.963
0.206,13.330,5.806,5.806,239.510,218.710,220.977
0.208,13.359,5.790,5.790,239.506,218.691,220.997
0.209,13.391,5.777,5.777,239.499,218.669,221.019
0.210,13.423,5.767,5.767,239.492,218.647,221.042
0.212,13.452,5.763,5.763,239.485,218.628,221.063
0.213,13.474,5.766,5.766,239.481,218.613,221.079
0.214,13.486,5.775,5.775,239.481,218.606,221.088
0.216,13.491,5.789,5.789,239.487,218.607,221.087
0.217,13.513,5.808,5.808,239.499,218.619,221.074
0.218,13.557,5.829,5.829,239.520,218.645,221.046
0.219,13.626,5.853,5.853,239.551,218.687,221.001
0.221,13.723,5.877,5.876,239.594,218.746,220.936
0.222,13.851,5.900,5.900,239.649,218.824,220.850
0.223,14.006,5.921,5.921,239.714,218.918,220.747
0.225,14.181,5.941,5.941,239.788,219.025,220.629
0.226,14.371,5.960,5.960,239.869,219.140,220.501
0.227,14.572,5.978,5.978,239.953,219.261,220.365
0.229,14.777,5.996,5.996,240.040,219.385,220.226
0.230,14.982,6.014,6.014,240.127,219.508,220.087
0.231,15.181,6.032,6.032,240.212,219.626,219.951
0.232,15.369,6.051,6.051,240.293,219.737,219.823
0.234,15.541,6.072,6.072,240.368,219.836,219.705
0.235,15.691,6.093,6.093,240.435,219.921,219.601
0.236,15.814,6.114,6.113,240.493,219.988,219.514
0.238,15.912,6.133,6.133,240.540,220.039,219.445
0.239,15.987,6.152,6.151,240.577,220.075,219.391
0.240,16.042,6.167,6.167,240.606,220.099,219.352
0.242,16.079,6.180,6.180,240.627,220.112,219.324
0.243,16.100,6.188,6.188,240.640,220.116,219.308
0.244,16.110,6.193,6.193,240.646,220.115,219.301
0.245,16.116,6.195,6.196,240.646,220.109,219.301
0.247,16.128,6.195,6.196,240.640,220.101,219.308
0.248,16.146,6.195,6.196,240.628,220.093,219.320
0.249,16.169,6.195,6.197,240.612,220.087,219.335
0.251,16.195,6.198,6.199,240.592,220.086,219.351
0.252,16.223,6.204,6.204,240.569,220.089,219.367
0.253,16.251,6.214,6.213,240.546,220.095,219.382
0.255,16.277,6.228,6.226,240.526,220.105,219.395
0.256,16.297,6.243,6.239,240.511,220.116,219.403
0.257,16.312,6.256,6.251,240.503,220.129,219.405
0.258,16.326,6.264,6.259,240.505,220.141,219.401
0.260,16.348,6.266,6.261,240.519,220.152,219.388
0.261,16.386,6.258,6.254,240.549,220.162,219.365
0.262,16.445,6.238,6.237,240.595,220.168,219.331
0.264,16.526,6.204,6.208,240.662,220.170,219.284
0.265,16.635,6.156,6.166,240.751,220.168,219.222
0.266,16.770,6.097,6.115,240.863,220.160,219.146
0.268,16.931,6.029,6.055,240.995,220.147,219.056
0.269,17.111,5.955,5.990,241.144,220.131,218.955
0.270,17.308,5.876,5.920,241.305,220.111,218.843
0.271,17.517,5.795,5.848,241.474,220.088,218.723
0.273,17.734,5.715,5.776,241.649,220.063,218.596
0.274,17.956,5.637,5.705,241.825,220.037,218.464
0.275,18.178,5.562,5.637,241.998,220.010,218.328
0.277,18.396,5.492,5.572,242.164,219.984,218.190
0.278,18.606,5.428,5.511,242.321,219.958,218.052
0.279,18.805,5.369,5.454,242.464,219.934,217.915
0.281,18.990,5.318,5.403,242.589,219.912,217.781
0.282,19.162,5.275,5.358,242.699,219.893,217.650
0.283,19.321,5.242,5.319,242.795,219.876,217.524
0.284,19.469,5.217,5.288,242.879,219.863,217.403
0.286,19.608,5.200,5.263,242.955,219.852,217.288
0.287,19.737,5.189,5.243,243.024,219.846,217.179
0.288,19.858,5.181,5.226,243.089,219.843,217.076
0.290,19.972,5.175,5.213,243.152,219.844,216.982
0.291,20.079,5.170,5.202,243.216,219.849,216.896
0.292,20.182,5.162,5.192,243.283,219.858,216.818
0.294,20.283,5.151,5.181,243.355,219.873,216.750
0.295,20.384,5.135,5.170,243.436,219.892,216.692
0.296,20.487,5.116,5.158,243.524,219.915,216.644
0.297,20.592,5.093,5.144,243.619,219.942,216.606
0.299,20.699,5.068,5.128,243.717,219.972,216.575
0.300,20.806,5.040,5.110,243.817,220.003,216.553
0.301,20.912,5.012,5.089,243.916,220.035,216.537
0.303,21.015,4.982,5.064,244.013,220.067,216.527
0.304,21.112,4.953,5.037,244.106,220.097,216.522
0.305,21.203,4.924,5.007,244.192,220.125,216.522
0.306,21.284,4.896,4.976,244.269,220.149,216.525
0.308,21.354,4.871,4.945,244.336,220.170,216.531
0.309,21.411,4.848,4.916,244.390,220.185,216.538
0.310,21.453,4.829,4.890,244.431,220.195,216.547
0.312,21.484,4.814,4.869,244.460,220.200,216.557
0.313,21.508,4.805,4.854,244.480,220.203,216.567
0.314,21.526,4.800,4.847,244.495,220.205,216.577
0.316,21.541,4.800,4.845,244.507,220.207,216.587
0.317,21.555,4.802,4.847,244.518,220.211,216.596
0.318,21.572,4.803,4.849,244.531,220.217,216.603
0.319,21.594,4.802,4.851,244.549,220.229,216.609
0.321,21.625,4.797,4.848,244.574,220.247,216.613
0.322,21.669,4.786,4.840,244.610,220.272,216.615
0.323,21.729,4.765,4.824,244.658,220.307,216.614
0.325,21.806,4.735,4.797,244.721,220.352,216.609
0.326,21.902,4.696,4.761,244.799,220.407,216.601
0.327,22.015,4.651,4.718,244.891,220.472,216.589
0.329,22.144,4.599,4.668,244.995,220.546,216.573
0.330,22.286,4.544,4.613,245.110,220.628,216.553
0.331,22.442,4.486,4.554,245.235,220.718,216.529
0.332,22.610,4.427,4.493,245.368,220.815,216.500
0.334,22.788,4.369,4.430,245.509,220.919,216.466
0.335,22.976,4.313,4.366,245.656,221.029,216.426
0.336,23.172,4.259,4.304,245.808,221.144,216.381
0.338,23.374,4.208,4.244,245.964,221.263,216.331
0.339,23.583,4.161,4.187,246.122,221.387,216.274
0.340,23.797,4.117,4.134,246.282,221.514,216.212
0.342,24.015,4.078,4.087,246.444,221.645,216.147
0.343,24.236,4.044,4.046,246.607,221.778,216.078
0.344,24.461,4.015,4.013,246.771,221.913,216.007
0.345,24.686,3.992,3.988,246.936,222.051,215.936
0.347,24.913,3.976,3.972,247.101,222.189,215.866
0.348,25.140,3.967,3.964,247.266,222.329,215.797
0.349,25.366,3.966,3.964,247.431,222.469,215.732
0.351,25.591,3.974,3.974,247.596,222.610,215.671
0.352,25.814,3.992,3.992,247.760,222.750,215.616
0.353,26.034,4.019,4.019,247.923,222.889,215.567
0.355,26.250,4.057,4.055,248.084,223.027,215.526
0.356,26.461,4.103,4.099,248.243,223.163,215.492
0.357,26.667,4.157,4.150,248.397,223.295,215.464
0.358,26.865,4.214,4.204,248.547,223.423,215.440
0.360,27.054,4.272,4.261,248.690,223.545,215.421
0.361,27.232,4.330,4.320,248.825,223.661,215.406
0.362,27.399,4.384,4.377,248.952,223.769,215.394
0.364,27.553,4.431,4.431,249.068,223.868,215.383
0.365,27.691,4.471,4.482,249.173,223.957,215.373
0.366,27.813,4.504,4.528,249.266,224.036,215.364
0.368,27.917,4.530,4.569,249.345,224.103,215.355
0.369,28.002,4.552,4.606,249.410,224.157,215.344
0.370,28.070,4.570,4.637,249.461,224.200,215.332
0.371,28.123,4.585,4.663,249.500,224.234,215.319
0.373,28.165,4.600,4.683,249.529,224.260,215.305
0.374,28.199,4.614,4.698,249.550,224.282,215.290
0.375,28.227,4.629,4.707,249.565,224.300,215.275
0.377,28.252,4.645,4.713,249.574,224.316,215.258
0.378,28.277,4.663,4.717,249.581,224.334,215.241
0.379,28.304,4.682,4.720,249.586,224.354,215.224
0.381,28.335,4.701,4.726,249.591,224.379,215.206
0.382,28.373,4.723,4.734,249.598,224.411,215.188
0.383,28.418,4.745,4.748,249.609,224.451,215.170
0.384,28.473,4.769,4.769,249.625,224.501,215.151
0.386,28.538,4.795,4.797,249.647,224.559,215.132
0.387,28.612,4.822,4.831,249.675,224.624,215.111
0.388,28.696,4.851,4.871,249.711,224.696,215.089
0.390,28.789,4.881,4.915,249.756,224.774,215.065
0.391,28.892,4.913,4.962,249.809,224.858,215.039
0.392,29.004,4.947,5.012,249.873,224.946,215.010
0.394,29.127,4.983,5.063,249.948,225.038,214.977
0.395,29.261,5.021,5.114,250.035,225.133,214.941
0.396,29.406,5.061,5.165,250.135,225.230,214.901
0.397,29.563,5.103,5.217,250.248,225.329,214.857
0.399,29.731,5.148,5.269,250.375,225.428,214.808
0.400,29.908,5.195,5.322,250.512,225.527,214.756
0.401,30.090,5.245,5.376,250.657,225.625,214.702
0.403,30.276,5.298,5.431,250.806,225.720,214.647
0.404,30.461,5.353,5.489,250.957,225.812,214.591
0.405,30.643,5.412,5.547,251.106,225.899,214.536
0.406,30.818,5.472,5.607,251.251,225.981,214.483
0.408,30.983,5.533,5.665,251.389,226.056,214.432
0.409,31.134,5.591,5.721,251.517,226.123,214.386
0.410,31.269,5.647,5.772,251.631,226.182,214.344
0.412,31.384,5.697,5.818,251.729,226.231,214.309
0.413,31.477,5.740,5.857,251.809,226.269,214.280
0.414,31.549,5.775,5.886,251.870,226.298,214.258
0.416,31.601,5.800,5.906,251.916,226.318,214.241
0.417,31.636,5.816,5.918,251.947,226.330,214.231
0.418,31.656,5.826,5.921,251.965,226.335,214.224
0.419,31.663,5.828,5.919,251.972,226.334,214.222
0.421,31.670,5.826,5.912,251.970,226.328,214.224
0.422,31.685,5.820,5.901,251.960,226.318,214.229
0.423,31.706,5.811,5.889,251.944,226.305,214.236
0.425,31.733,5.800,5.876,251.923,226.290,214.245
0.426,31.763,5.789,5.863,251.900,226.274,214.255
0.427,31.794,5.778,5.851,251.876,226.258,214.266
0.429,31.824,5.768,5.840,251.853,226.243,214.277
0.430,31.851,5.758,5.830,251.831,226.230,214.287
0.431,31.875,5.750,5.823,251.812,226.219,214.296
0.432,31.893,5.744,5.818,251.798,226.210,214.303
0.434,31.904,5.740,5.816,251.790,226.205,214.308
0.435,31.906,5.740,5.817,251.789,226.204,214.310
0.436,31.914,5.742,5.821,251.797,226.209,214.308
0.438,31.935,5.748,5.828,251.814,226.218,214.301
0.439,31.970,5.756,5.839,251.843,226.234,214.289
0.440,32.021,5.767,5.852,251.884,226.258,214.272
0.442,32.088,5.780,5.868,251.939,226.288,214.248
0.443,32.173,5.796,5.887,252.008,226.327,214.218
0.444,32.273,5.815,5.908,252.090,226.371,214.182
0.445,32.387,5.835,5.932,252.183,226.421,214.140
0.447,32.511,5.857,5.957,252.286,226.474,214.094
0.448,32.645,5.881,5.983,252.397,226.529,214.043
0.449,32.785,5.906,6.009,252.513,226.585,213.988
0.451,32.930,5.931,6.035,252.634,226.641,213.930
0.452,33.078,5.957,6.059,252.758,226.694,213.869
0.453,33.227,5.982,6.080,252.883,226.744,213.806
0.455,33.374,6.007,6.099,253.008,226.789,213.742
0.456,33.519,6.031,6.114,253.131,226.827,213.677
0.457,33.658,6.054,6.126,253.250,226.859,213.611
0.458,33.793,6.076,6.137,253.365,226.883,213.546
0.460,33.922,6.099,6.145,253.477,226.903,213.483
0.461,34.046,6.121,6.154,253.583,226.918,213.422
0.462,34.163,6.143,6.163,253.685,226.931,213.365
0.464,34.274,6.165,6.173,253.782,226.942,213.313
0.465,34.378,6.187,6.185,253.874,226.952,213.267
0.466,34.474,6.210,6.200,253.961,226.963,213.227
0.468,34.562,6.234,6.218,254.042,226.977,213.195
0.469,34.643,6.257,6.238,254.118,226.993,213.172
0.470,34.716,6.279,6.260,254.187,227.014,213.159
0.471,34.785,6.301,6.284,254.250,227.040,213.156
0.473,34.851,6.322,6.309,254.308,227.072,213.164
0.474,34.917,6.342,6.336,254.361,227.107,213.182
0.475,34.985,6.360,6.364,254.411,227.146,213.207
0.477,35.056,6.376,6.393,254.459,227.186,213.239
0.478,35.128,6.391,6.422,254.506,227.226,213.276
0.479,35.202,6.404,6.448,254.553,227.265,213.319
0.481,35.278,6.415,6.472,254.602,227.302,213.364
0.482,35.356,6.425,6.493,254.653,227.336,213.411
0.483,35.434,6.434,6.508,254.708,227.365,213.459
0.484,35.514,6.440,6.517,254.768,227.388,213.507
0.486,35.596,6.446,6.520,254.834,227.404,213.553
0.487,35.681,6.450,6.516,254.906,227.413,213.596
0.488,35.771,6.452,6.507,254.986,227.416,213.638
0.490,35.867,6.452,6.496,255.074,227.416,213.677
0.491,35.970,6.449,6.483,255.170,227.415,213.713
0.492,36.080,6.444,6.471,255.274,227.413,213.748
0.494,36.198,6.435,6.462,255.388,227.414,213.781
0.495,36.325,6.424,6.457,255.510,227.420,213.811
0.496,36.461,6.409,6.457,255.643,227.431,213.840
0.497,36.607,6.392,6.462,255.785,227.451,213.867
0.499,36.765,6.375,6.471,255.939,227.481,213.892
0.500,36.936,6.359,6.484,256.103,227.522,213.915
0.501,37.121,6.347,6.498,256.278,227.577,213.937
0.503,37.317,6.341,6.514,256.461,227.644,213.957
0.504,37.520,6.341,6.529,256.649,227.720,213.975
0.505,37.728,6.350,6.543,256.839,227.803,213.991
0.506,37.937,6.369,6.555,257.028,227.890,214.006
0.508,38.142,6.395,6.566,257.212,227.979,214.019
0.509,38.340,6.427,6.574,257.388,228.068,214.031
0.510,38.527,6.460,6.581,257.554,228.155,214.040
0.512,38.699,6.494,6.586,257.705,228.236,214.048
0.513,38.853,6.524,6.589,257.840,228.311,214.054
0.514,38.984,6.549,6.591,257.954,228.375,214.058
0.516,39.088,6.566,6.591,258.044,228.428,214.061
0.517,39.167,6.573,6.589,258.112,228.469,214.061
0.518,39.223,6.574,6.587,258.159,228.499,214.061
0.519,39.259,6.569,6.584,258.188,228.519,214.059
0.521,39.278,6.560,6.581,258.202,228.531,214.056
0.522,39.284,6.551,6.578,258.202,228.536,214.053
0.523,39.295,6.542,6.576,258.193,228.536,214.049
0.525,39.314,6.535,6.574,258.174,228.531,214.045
0.526,39.339,6.533,6.573,258.151,228.522,214.041
0.527,39.368,6.535,6.573,258.124,228.512,214.038
0.529,39.398,6.541,6.574,258.096,228.500,214.035
0.530,39.426,6.550,6.576,258.071,228.490,214.033
