"T","Distance","Radius","FreeRadius","X","Y","Z"
0.000,0.000,1.518,1.518,219.005,192.995,185.059
0.001,0.101,1.457,1.457,218.936,192.991,184.986
0.003,0.196,1.400,1.400,218.870,192.987,184.917
0.004,0.282,1.349,1.349,218.812,192.982,184.855
0.005,0.351,1.306,1.306,218.763,192.978,184.805
0.006,0.400,1.276,1.276,218.730,192.974,184.770
0.008,0.423,1.260,1.260,218.713,192.969,184.754
0.009,0.433,1.262,1.262,218.718,192.965,184.761
0.010,0.478,1.284,1.284,218.748,192.960,184.794
0.011,0.565,1.330,1.330,218.807,192.955,184.858
0.013,0.698,1.398,1.398,218.897,192.950,184.956
0.014,0.884,1.487,1.487,219.023,192.945,185.093
0.015,1.125,1.596,1.596,219.187,192.939,185.270
0.016,1.418,1.724,1.724,219.385,192.933,185.484
0.018,1.750,1.868,1.868,219.613,192.925,185.727
0.019,2.114,2.029,2.029,219.863,192.915,185.991
0.020,2.498,2.204,2.204,220.128,192.901,186.268
0.021,2.893,2.391,2.391,220.403,192.885,186.551
0.023,3.288,2.587,2.587,220.681,192.864,186.831
0.024,3.674,2.786,2.786,220.956,192.838,187.100
0.025,4.041,2.984,2.984,221.221,192.806,187.352
0.026,4.379,3.175,3.175,221.470,192.768,187.577
0.028,4.678,3.354,3.354,221.696,192.723,187.769
0.029,4.932,3.516,3.516,221.894,192.670,187.919
0.030,5.140,3.656,3.656,222.061,192.609,188.026
0.031,5.308,3.771,3.771,222.200,192.543,188.095
0.033,5.446,3.860,3.860,222.313,192.474,188.131
0.034,5.562,3.929,3.929,222.403,192.401,188.138
0.035,5.663,3.979,3.979,222.472,192.328,188.123
0.036,5.758,4.016,4.016,222.523,192.257,188.088
0.038,5.849,4.042,4.042,222.557,192.188,188.040
0.039,5.937,4.062,4.062,222.579,192.123,187.983
0.040,6.022,4.079,4.079,222.589,192.064,187.923
0.041,6.100,4.095,4.095,222.590,192.013,187.863
0.043,6.168,4.113,4.113,222.585,191.972,187.809
0.044,6.223,4.130,4.130,222.577,191.941,187.765
0.045,6.266,4.146,4.146,222.566,191.920,187.730
0.046,6.296,4.161,4.161,222.556,191.908,187.704
0.048,6.314,4.173,4.173,222.549,191.905,187.688
0.049,6.323,4.182,4.182,222.545,191.911,187.682
0.050,6.337,4.186,4.186,222.548,191.924,187.685
0.051,6.363,4.186,4.186,222.559,191.944,187.697
0.053,6.404,4.181,4.181,222.581,191.971,187.720
0.054,6.462,4.173,4.173,222.615,192.004,187.752
0.055,6.536,4.163,4.163,222.663,192.043,187.793
0.056,6.630,4.152,4.152,222.728,192.087,187.845
0.058,6.743,4.142,4.142,222.810,192.135,187.906
0.059,6.874,4.133,4.133,222.908,192.187,187.974
0.060,7.018,4.127,4.127,223.019,192.242,188.049
0.061,7.172,4.126,4.126,223.139,192.298,188.128
0.063,7.334,4.128,4.128,223.266,192.355,188.209
0.064,7.499,4.134,4.134,223.397,192.412,188.291
0.065,7.663,4.144,4.144,223.530,192.468,188.372
0.066,7.825,4.155,4.155,223.661,192.522,188.450
0.068,7.980,4.168,4.168,223.787,192.573,188.524
0.069,8.124,4.182,4.182,223.906,192.620,188.590
0.070,8.255,4.197,4.197,224.015,192.662,188.649
0.071,8.369,4.212,4.212,224.111,192.699,188.697
0.073,8.466,4.226,4.226,224.195,192.730,188.736
0.074,8.550,4.239,4.239,224.268,192.757,188.767
0.075,8.620,4.251,4.251,224.331,192.778,188.790
0.076,8.680,4.262,4.262,224.386,192.796,188.807
0.078,8.732,4.272,4.272,224.434,192.810,188.818
0.079,8.777,4.281,4.281,224.477,192.822,188.826
0.080,8.816,4.287,4.287,224.515,192.830,188.831
0.081,8.853,4.292,4.292,224.551,192.837,188.834
0.083,8.888,4.295,4.295,224.586,192.842,188.836
0.084,8.923,4.297,4.297,224.621,192.846,188.839
0.085,8.960,4.297,4.297,224.657,192.849,188.843
0.086,8.998,4.296,4.296,224.695,192.852,188.849
0.088,9.037,4.295,4.295,224.733,192.854,188.857
0.089,9.075,4.293,4.293,224.769,192.857,188.865
0.090,9.111,4.292,4.292,224.804,192.860,188.875
0.091,9.144,4.290,4.290,224.835,192.864,188.885
0.093,9.172,4.289,4.289,224.861,192.868,188.896
0.094,9.195,4.289,4.289,224.881,192.872,188.906
0.095,9.213,4.289,4.289,224.894,192.878,188.916
0.096,9.225,4.291,4.291,224.899,192.885,188.925
0.098,9.237,4.293,4.293,224.893,192.893,188.933
0.099,9.257,4.296,4.296,224.877,192.902,188.940
0.100,9.286,4.301,4.301,224.850,192.913,188.945
0.102,9.321,4.307,4.307,224.817,192.924,188.949
0.103,9.358,4.314,4.314,224.782,192.934,188.951
0.104,9.393,4.321,4.321,224.748,192.943,188.952
0.105,9.422,4.326,4.326,224.721,192.950,188.951
0.107,9.440,4.329,4.329,224.703,192.954,188.950
0.108,9.445,4.327,4.327,224.699,192.954,188.948
0.109,9.460,4.321,4.321,224.713,192.949,188.946
0.110,9.498,4.308,4.308,224.749,192.938,188.942
0.112,9.563,4.288,4.288,224.812,192.920,188.938
0.113,9.659,4.260,4.260,224.904,192.895,188.934
0.114,9.789,4.226,4.226,225.029,192.861,188.930
0.115,9.947,4.189,4.189,225.183,192.821,188.925
0.117,10.130,4.151,4.151,225.360,192.774,188.920
0.118,10.332,4.114,4.114,225.554,192.723,188.915
0.119,10.546,4.079,4.079,225.762,192.667,188.911
0.120,10.769,4.049,4.049,225.977,192.609,188.906
0.122,10.995,4.026,4.026,226.194,192.549,188.902
0.123,11.218,4.011,4.011,226.409,192.489,188.898
0.124,11.433,4.004,4.004,226.615,192.429,188.895
0.125,11.634,4.003,4.003,226.808,192.370,188.892
0.127,11.818,4.006,4.006,226.983,192.315,188.890
0.128,11.978,4.014,4.014,227.135,192.263,188.888
0.129,12.117,4.025,4.025,227.265,192.215,188.887
0.130,12.238,4.037,4.037,227.378,192.171,188.885
0.132,12.344,4.051,4.051,227.476,192.131,188.884
0.133,12.439,4.065,4.065,227.564,192.096,188.881
0.134,12.525,4.079,4.079,227.645,192.065,188.877
0.135,12.607,4.095,4.095,227.722,192.039,188.871
0.137,12.688,4.112,4.112,227.799,192.018,188.862
0.138,12.771,4.131,4.131,227.880,192.001,188.851
0.139,12.861,4.152,4.152,227.968,191.989,188.837
0.140,12.962,4.176,4.176,228.068,191.982,188.820
0.142,13.078,4.204,4.204,228.181,191.980,188.798
0.143,13.209,4.235,4.235,228.310,191.982,188.774
0.144,13.354,4.270,4.270,228.452,191.987,188.749
0.145,13.511,4.308,4.308,228.608,191.992,188.726
0.147,13.679,4.348,4.348,228.775,191.995,188.706
0.148,13.857,4.391,4.391,228.952,191.995,188.692
0.149,14.043,4.435,4.435,229.138,191.991,188.686
0.150,14.237,4.481,4.481,229.332,191.980,188.689
0.152,14.439,4.528,4.528,229.532,191.960,188.705
0.153,14.649,4.576,4.576,229.738,191.930,188.735
0.154,14.868,4.625,4.625,229.948,191.888,188.782
0.155,15.098,4.675,4.675,230.161,191.832,188.847
0.157,15.337,4.725,4.725,230.375,191.763,188.930
0.158,15.585,4.777,4.777,230.587,191.682,189.029
0.159,15.838,4.830,4.830,230.796,191.593,189.138
0.160,16.091,4.883,4.883,230.999,191.498,189.256
0.162,16.340,4.938,4.938,231.193,191.400,189.378
0.163,16.582,4.995,4.995,231.377,191.301,189.501
0.164,16.811,5.050,5.050,231.547,191.206,189.621
0.165,17.023,5.105,5.105,231.701,191.115,189.734
0.167,17.212,5.156,5.156,231.837,191.033,189.838
0.168,17.375,5.203,5.203,231.952,190.961,189.928
0.169,17.507,5.245,5.245,232.045,190.903,190.001
0.170,17.604,5.279,5.279,232.113,190.859,190.055
0.172,17.669,5.305,5.305,232.159,190.830,190.091
0.173,17.707,5.322,5.322,232.185,190.813,190.112
0.174,17.722,5.331,5.331,232.196,190.806,190.119
0.175,17.726,5.332,5.332,232.193,190.808,190.116
0.177,17.746,5.329,5.329,232.179,190.816,190.105
0.178,17.778,5.321,5.321,232.157,190.830,190.087
0.179,17.816,5.311,5.311,232.131,190.847,190.065
0.180,17.858,5.300,5.300,232.102,190.866,190.042
0.182,17.898,5.290,5.290,232.074,190.884,190.019
0.183,17.934,5.281,5.281,232.049,190.901,190.000
0.184,17.961,5.275,5.275,232.030,190.914,189.985
0.185,17.979,5.271,5.271,232.017,190.923,189.976
0.187,17.989,5.269,5.269,232.011,190.928,189.971
0.188,17.989,5.269,5.269,232.011,190.929,189.972
0.189,17.998,5.271,5.271,232.017,190.925,189.977
0.190,18.015,5.275,5.275,232.028,190.917,189.986
0.192,18.041,5.281,5.281,232.046,190.904,190.000
0.193,18.074,5.288,5.288,232.068,190.886,190.017
0.194,18.116,5.298,5.298,232.097,190.863,190.038
0.195,18.166,5.309,5.309,232.130,190.835,190.063
0.197,18.224,5.322,5.322,232.169,190.802,190.090
0.198,18.290,5.337,5.337,232.212,190.764,190.120
0.199,18.362,5.352,5.352,232.260,190.720,190.153
0.201,18.440,5.369,5.369,232.311,190.672,190.188
0.202,18.522,5.387,5.387,232.364,190.622,190.225
0.203,18.608,5.405,5.405,232.420,190.569,190.262
0.204,18.695,5.425,5.425,232.476,190.514,190.300
0.206,18.782,5.445,5.445,232.532,190.459,190.338
0.207,18.869,5.465,5.465,232.588,190.404,190.375
0.208,18.953,5.486,5.486,232.642,190.351,190.411
0.209,19.034,5.507,5.507,232.694,190.299,190.446
0.211,19.110,5.527,5.527,232.742,190.250,190.479
0.212,19.180,5.547,5.547,232.786,190.205,190.509
0.213,19.243,5.566,5.566,232.826,190.164,190.537
0.214,19.301,5.584,5.584,232.861,190.127,190.562
0.216,19.353,5.602,5.602,232.893,190.093,190.586
0.217,19.402,5.619,5.619,232.921,190.061,190.609
0.218,19.447,5.635,5.635,232.946,190.031,190.631
0.219,19.489,5.650,5.650,232.969,190.002,190.652
0.221,19.529,5.664,5.664,232.989,189.974,190.674
0.222,19.569,5.677,5.677,233.006,189.947,190.696
0.223,19.608,5.689,5.689,233.023,189.919,190.720
0.224,19.649,5.700,5.700,233.037,189.891,190.745
0.226,19.691,5.709,5.709,233.051,189.861,190.771
0.227,19.735,5.717,5.717,233.063,189.830,190.801
0.228,19.782,5.724,5.724,233.075,189.798,190.831
0.229,19.830,5.729,5.729,233.086,189.764,190.863
0.231,19.878,5.732,5.732,233.096,189.730,190.896
0.232,19.927,5.734,5.734,233.104,189.695,190.929
0.233,19.975,5.734,5.734,233.112,189.660,190.962
0.234,20.023,5.733,5.733,233.118,189.625,190.993
0.236,20.069,5.730,5.730,233.122,189.590,191.023
0.237,20.113,5.726,5.726,233.125,189.556,191.051
0.238,20.155,5.721,5.721,233.126,189.523,191.077
0.239,20.194,5.716,5.716,233.125,189.491,191.099
0.241,20.230,5.710,5.711,233.123,189.461,191.119
0.242,20.263,5.705,5.706,233.119,189.432,191.135
0.243,20.295,5.701,5.701,233.115,189.404,191.150
0.244,20.325,5.698,5.697,233.112,189.378,191.165
0.246,20.355,5.695,5.695,233.110,189.352,191.180
0.247,20.385,5.695,5.694,233.111,189.327,191.197
0.248,20.416,5.697,5.696,233.115,189.303,191.216
0.249,20.451,5.702,5.701,233.123,189.280,191.240
0.251,20.490,5.711,5.710,233.136,189.256,191.268
0.252,20.535,5.723,5.722,233.154,189.233,191.303
0.253,20.589,5.739,5.739,233.180,189.210,191.345
0.254,20.654,5.759,5.760,233.213,189.187,191.395
0.256,20.727,5.782,5.784,233.252,189.164,191.452
0.257,20.806,5.806,5.809,233.297,189.142,191.513
0.258,20.889,5.830,5.833,233.346,189.120,191.577
0.259,20.973,5.852,5.856,233.396,189.099,191.641
0.261,21.056,5.873,5.875,233.447,189.080,191.703
0.262,21.135,5.889,5.890,233.497,189.062,191.761
0.263,21.206,5.901,5.899,233.545,189.047,191.812
0.264,21.268,5.907,5.902,233.588,189.035,191.855
0.266,21.318,5.908,5.900,233.626,189.025,191.886
0.267,21.354,5.906,5.895,233.657,189.018,191.903
0.268,21.376,5.901,5.888,233.679,189.015,191.905
0.269,21.394,5.894,5.881,233.692,189.015,191.892
0.271,21.418,5.886,5.876,233.698,189.018,191.869
0.272,21.447,5.878,5.873,233.699,189.024,191.841
0.273,21.478,5.871,5.875,233.697,189.030,191.811
0.274,21.505,5.865,5.881,233.694,189.037,191.785
0.276,21.524,5.861,5.891,233.691,189.044,191.767
0.277,21.532,5.857,5.902,233.691,189.050,191.762
0.278,21.546,5.853,5.914,233.695,189.055,191.775
0.279,21.583,5.850,5.923,233.705,189.058,191.810
0.281,21.647,5.847,5.930,233.724,189.058,191.872
0.282,21.745,5.843,5.932,233.752,189.055,191.965
0.283,21.877,5.839,5.928,233.791,189.047,192.091
0.284,22.039,5.835,5.916,233.839,189.036,192.245
0.286,22.225,5.829,5.900,233.897,189.023,192.422
0.287,22.429,5.822,5.880,233.962,189.007,192.615
0.288,22.645,5.813,5.859,234.033,188.989,192.818
0.289,22.867,5.802,5.838,234.109,188.969,193.026
0.291,23.090,5.788,5.819,234.188,188.949,193.232
0.292,23.307,5.772,5.803,234.270,188.929,193.432
0.293,23.512,5.752,5.793,234.353,188.909,193.619
0.294,23.700,5.729,5.790,234.436,188.889,193.787
0.296,23.866,5.704,5.790,234.517,188.871,193.930
0.297,24.006,5.678,5.794,234.596,188.855,194.045
0.298,24.122,5.651,5.799,234.672,188.840,194.131
0.299,24.219,5.626,5.804,234.745,188.826,194.193
0.301,24.299,5.602,5.806,234.814,188.814,194.233
0.302,24.369,5.580,5.805,234.879,188.803,194.253
0.303,24.431,5.563,5.798,234.941,188.794,194.258
0.305,24.489,5.550,5.784,234.997,188.785,194.249
0.306,24.545,5.541,5.765,235.049,188.776,194.231
0.307,24.599,5.535,5.742,235.096,188.768,194.204
0.308,24.650,5.531,5.715,235.137,188.761,194.174
0.310,24.699,5.529,5.688,235.172,188.754,194.142
0.311,24.742,5.528,5.659,235.202,188.747,194.111
0.312,24.780,5.526,5.632,235.226,188.740,194.083
0.313,24.812,5.524,5.606,235.246,188.733,194.058
0.315,24.839,5.521,5.584,235.263,188.727,194.038
0.316,24.861,5.517,5.566,235.277,188.722,194.022
0.317,24.878,5.512,5.552,235.291,188.718,194.013
0.318,24.893,5.507,5.543,235.305,188.714,194.010
0.320,24.908,5.501,5.540,235.320,188.712,194.015
0.321,24.930,5.494,5.544,235.337,188.711,194.028
0.322,24.960,5.487,5.555,235.357,188.712,194.050
0.323,25.001,5.481,5.573,235.383,188.714,194.081
0.325,25.053,5.474,5.598,235.413,188.718,194.124
0.326,25.117,5.467,5.630,235.449,188.724,194.176
0.327,25.190,5.460,5.664,235.489,188.732,194.236
0.328,25.270,5.453,5.699,235.532,188.742,194.304
0.330,25.355,5.445,5.732,235.576,188.753,194.376
0.331,25.444,5.437,5.760,235.621,188.765,194.451
0.332,25.532,5.428,5.780,235.664,188.779,194.528
0.333,25.620,5.418,5.792,235.704,188.794,194.604
0.335,25.704,5.406,5.791,235.740,188.810,194.678
0.336,25.783,5.395,5.781,235.770,188.827,194.749
0.337,25.854,5.383,5.762,235.794,188.844,194.814
0.338,25.917,5.373,5.735,235.810,188.862,194.872
0.340,25.970,5.363,5.704,235.817,188.881,194.921
0.341,26.016,5.356,5.670,235.820,188.898,194.963
0.342,26.054,5.351,5.634,235.821,188.913,194.999
0.343,26.086,5.350,5.598,235.823,188.925,195.028
0.345,26.112,5.352,5.564,235.830,188.931,195.052
0.346,26.138,5.356,5.530,235.846,188.931,195.073
0.347,26.170,5.357,5.495,235.873,188.924,195.089
0.348,26.217,5.353,5.457,235.914,188.908,195.103
0.350,26.283,5.341,5.413,235.974,188.882,195.116
0.351,26.373,5.318,5.363,236.055,188.845,195.127
0.352,26.491,5.280,5.303,236.161,188.795,195.138
0.353,26.638,5.225,5.233,236.294,188.731,195.150
0.355,26.813,5.151,5.151,236.450,188.656,195.163
0.356,27.009,5.059,5.058,236.626,188.570,195.177
0.357,27.224,4.955,4.958,236.818,188.475,195.193
0.358,27.452,4.843,4.854,237.022,188.374,195.212
0.360,27.689,4.728,4.749,237.233,188.268,195.232
0.361,27.931,4.614,4.645,237.447,188.159,195.256
0.362,28.173,4.506,4.545,237.661,188.048,195.283
0.363,28.411,4.408,4.454,237.870,187.937,195.314
0.365,28.642,4.325,4.372,238.070,187.829,195.349
0.366,28.860,4.255,4.300,238.258,187.725,195.389
0.367,29.062,4.198,4.237,238.429,187.626,195.433
0.368,29.249,4.150,4.183,238.583,187.532,195.482
0.370,29.422,4.110,4.134,238.722,187.444,195.534
0.371,29.583,4.075,4.091,238.849,187.360,195.587
0.372,29.733,4.045,4.053,238.964,187.281,195.642
0.373,29.874,4.016,4.017,239.069,187.205,195.696
0.375,30.006,3.987,3.983,239.166,187.131,195.750
0.376,30.132,3.957,3.952,239.256,187.060,195.801
0.377,30.252,3.929,3.923,239.342,186.991,195.848
0.378,30.368,3.901,3.896,239.425,186.923,195.891
0.380,30.480,3.877,3.873,239.506,186.856,195.929
0.381,30.590,3.856,3.854,239.588,186.789,195.960
0.382,30.700,3.839,3.838,239.671,186.722,195.985
0.383,30.810,3.827,3.827,239.757,186.654,196.004
0.385,30.923,3.821,3.821,239.845,186.587,196.020
0.386,31.038,3.821,3.820,239.936,186.518,196.033
0.387,31.157,3.826,3.822,240.032,186.449,196.045
0.388,31.280,3.834,3.828,240.133,186.378,196.057
0.390,31.409,3.844,3.837,240.239,186.307,196.070
0.391,31.543,3.855,3.848,240.351,186.234,196.085
0.392,31.685,3.866,3.860,240.470,186.161,196.105
0.393,31.834,3.875,3.873,240.597,186.085,196.129
0.395,31.992,3.883,3.887,240.732,186.008,196.160
0.396,32.159,3.888,3.901,240.874,185.930,196.197
0.397,32.331,3.892,3.914,241.021,185.852,196.240
0.398,32.504,3.896,3.928,241.170,185.776,196.285
0.400,32.675,3.899,3.941,241.318,185.704,196.332
0.401,32.841,3.904,3.954,241.462,185.637,196.378
0.402,32.997,3.911,3.966,241.600,185.577,196.422
0.404,33.140,3.920,3.978,241.727,185.526,196.461
0.405,33.266,3.933,3.989,241.843,185.486,196.495
0.406,33.373,3.949,3.999,241.942,185.457,196.521
0.407,33.458,3.967,4.008,242.024,185.442,196.537
0.409,33.518,3.985,4.016,242.084,185.443,196.541
0.410,33.560,4.001,4.022,242.122,185.459,196.534
0.411,33.597,4.015,4.026,242.140,185.487,196.517
0.412,33.639,4.024,4.028,242.146,185.521,196.494
0.414,33.682,4.027,4.027,242.142,185.556,196.469
0.415,33.721,4.023,4.024,242.135,185.587,196.446
0.416,33.749,4.013,4.020,242.129,185.608,196.427
0.417,33.761,4.001,4.017,242.129,185.614,196.417
0.419,33.779,3.991,4.018,242.141,185.600,196.420
0.420,33.831,3.986,4.026,242.169,185.560,196.438
0.421,33.925,3.991,4.045,242.218,185.490,196.476
0.422,34.069,4.010,4.076,242.293,185.383,196.537
0.424,34.269,4.046,4.124,242.399,185.237,196.624
0.425,34.522,4.104,4.189,242.533,185.055,196.735
0.426,34.815,4.182,4.273,242.690,184.843,196.865
0.427,35.141,4.277,4.370,242.865,184.610,197.011
0.429,35.488,4.382,4.477,243.052,184.363,197.168
0.430,35.848,4.492,4.588,243.247,184.109,197.331
0.431,36.209,4.603,4.700,243.444,183.855,197.497
0.432,36.563,4.709,4.807,243.638,183.609,197.661
0.434,36.899,4.804,4.906,243.824,183.378,197.819
0.435,37.208,4.883,4.991,243.998,183.170,197.967
0.436,37.479,4.945,5.061,244.153,182.991,198.099
0.437,37.704,4.992,5.117,244.284,182.849,198.213
0.439,37.881,5.026,5.161,244.392,182.745,198.308
0.440,38.015,5.051,5.193,244.477,182.674,198.383
0.441,38.112,5.067,5.217,244.542,182.632,198.442
0.442,38.178,5.079,5.232,244.588,182.614,198.485
0.444,38.220,5.089,5.241,244.617,182.616,198.515
0.445,38.248,5.099,5.245,244.632,182.634,198.532
0.446,38.278,5.111,5.245,244.634,182.663,198.538
0.447,38.316,5.125,5.242,244.626,182.699,198.534
0.449,38.360,5.139,5.238,244.609,182.738,198.523
0.450,38.407,5.153,5.234,244.584,182.775,198.505
0.451,38.455,5.168,5.229,244.555,182.805,198.482
0.452,38.501,5.181,5.226,244.523,182.827,198.456
0.454,38.545,5.193,5.225,244.492,182.841,198.429
0.455,38.584,5.203,5.228,244.462,182.848,198.404
0.456,38.616,5.211,5.234,244.439,182.849,198.383
0.457,38.639,5.217,5.242,244.423,182.844,198.367
0.459,38.651,5.220,5.252,244.418,182.836,198.360
0.460,38.666,5.222,5.263,244.427,182.825,198.364
0.461,38.699,5.223,5.272,244.452,182.811,198.380
0.462,38.755,5.222,5.280,244.495,182.796,198.412
0.464,38.838,5.220,5.284,244.560,182.781,198.462
0.465,38.952,5.217,5.285,244.650,182.766,198.531
0.466,39.099,5.214,5.281,244.765,182.752,198.622
0.467,39.275,5.212,5.274,244.904,182.739,198.728
0.469,39.474,5.212,5.267,245.065,182.726,198.846
0.470,39.693,5.215,5.260,245.245,182.711,198.969
0.471,39.925,5.222,5.257,245.441,182.694,199.093
0.472,40.168,5.236,5.258,245.651,182.675,199.212
0.474,40.416,5.256,5.266,245.873,182.651,199.320
0.475,40.668,5.285,5.283,246.105,182.622,199.414
0.476,40.919,5.323,5.310,246.342,182.588,199.487
0.477,41.169,5.369,5.347,246.585,182.547,199.534
0.479,41.418,5.421,5.393,246.829,182.499,199.550
0.480,41.669,5.480,5.448,247.072,182.442,199.530
0.481,41.923,5.544,5.513,247.313,182.379,199.479
0.482,42.180,5.612,5.586,247.548,182.310,199.400
0.484,42.439,5.682,5.667,247.775,182.237,199.299
0.485,42.697,5.754,5.756,247.993,182.163,199.183
0.486,42.950,5.826,5.852,248.198,182.089,199.056
0.487,43.193,5.898,5.952,248.389,182.016,198.923
0.489,43.422,5.967,6.052,248.563,181.947,198.791
0.490,43.633,6.032,6.150,248.718,181.883,198.665
0.491,43.818,6.092,6.243,248.852,181.825,198.550
0.492,43.974,6.145,6.326,248.962,181.776,198.451
0.494,44.095,6.191,6.397,249.046,181.737,198.374
0.495,44.181,6.226,6.452,249.106,181.708,198.319
0.496,44.238,6.252,6.489,249.146,181.687,198.284
0.497,44.272,6.268,6.511,249.170,181.672,198.265
0.499,44.288,6.277,6.520,249.182,181.662,198.261
0.500,44.299,6.282,6.519,249.186,181.654,198.268
0.501,44.316,6.284,6.512,249.187,181.647,198.283
0.503,44.339,6.284,6.501,249.188,181.639,198.304
0.504,44.365,6.286,6.489,249.194,181.628,198.327
0.505,44.397,6.290,6.479,249.208,181.612,198.351
0.506,44.438,6.299,6.474,249.236,181.590,198.372
0.508,44.494,6.312,6.474,249.280,181.559,198.387
0.509,44.568,6.329,6.477,249.342,181.520,198.396
0.510,44.657,6.348,6.483,249.419,181.475,198.398
0.511,44.760,6.368,6.491,249.508,181.423,198.395
