"T","Distance","Radius","FreeRadius","X","Y","Z"
0.000,0.000,3.528,3.528,238.648,252.248,256.109
0.002,0.334,3.558,3.558,238.819,252.533,256.081
0.003,0.665,3.590,3.590,238.989,252.816,256.054
0.005,0.992,3.627,3.627,239.157,253.095,256.027
0.006,1.313,3.671,3.671,239.321,253.369,255.999
0.008,1.625,3.723,3.723,239.481,253.636,255.973
0.009,1.926,3.787,3.787,239.636,253.893,255.946
0.011,2.214,3.865,3.865,239.784,254.139,255.920
0.012,2.488,3.955,3.955,239.924,254.372,255.895
0.014,2.744,4.053,4.053,240.056,254.591,255.871
0.015,2.980,4.154,4.154,240.177,254.792,255.847
0.017,3.196,4.253,4.253,240.288,254.975,255.824
0.018,3.387,4.345,4.345,240.387,255.138,255.802
0.020,3.553,4.425,4.425,240.472,255.279,255.781
0.021,3.693,4.487,4.487,240.544,255.397,255.761
0.023,3.809,4.534,4.534,240.604,255.495,255.744
0.024,3.905,4.568,4.568,240.651,255.577,255.728
0.026,3.983,4.595,4.595,240.688,255.645,255.716
0.027,4.047,4.618,4.618,240.715,255.702,255.708
0.029,4.098,4.641,4.641,240.733,255.750,255.704
0.030,4.142,4.668,4.668,240.744,255.793,255.704
0.032,4.183,4.703,4.703,240.747,255.833,255.710
0.033,4.225,4.743,4.743,240.744,255.873,255.723
0.035,4.273,4.786,4.786,240.736,255.916,255.741
0.036,4.330,4.829,4.829,240.723,255.966,255.768
0.038,4.399,4.871,4.871,240.708,256.023,255.802
0.040,4.482,4.908,4.908,240.690,256.092,255.844
0.041,4.578,4.939,4.939,240.670,256.172,255.893
0.043,4.685,4.963,4.963,240.647,256.262,255.948
0.044,4.801,4.983,4.983,240.621,256.359,256.005
0.046,4.923,5.003,5.003,240.592,256.462,256.063
0.047,5.048,5.027,5.027,240.560,256.570,256.119
0.049,5.175,5.057,5.057,240.525,256.680,256.171
0.050,5.302,5.096,5.096,240.485,256.791,256.218
0.052,5.427,5.149,5.149,240.442,256.902,256.256
0.053,5.548,5.211,5.211,240.394,257.009,256.284
0.055,5.665,5.277,5.277,240.341,257.113,256.300
0.056,5.779,5.341,5.341,240.283,257.210,256.300
0.058,5.890,5.399,5.399,240.221,257.300,256.284
0.059,6.000,5.443,5.443,240.153,257.381,256.251
0.061,6.112,5.469,5.469,240.082,257.454,256.205
0.062,6.221,5.473,5.473,240.011,257.519,256.153
0.064,6.325,5.461,5.461,239.943,257.577,256.101
0.065,6.418,5.437,5.437,239.879,257.629,256.056
0.067,6.499,5.407,5.407,239.822,257.676,256.024
0.068,6.563,5.377,5.377,239.776,257.718,256.012
0.070,6.616,5.353,5.353,239.741,257.757,256.025
0.071,6.677,5.341,5.341,239.722,257.793,256.070
0.073,6.767,5.340,5.340,239.720,257.827,256.154
0.074,6.901,5.345,5.345,239.738,257.859,256.282
0.076,7.088,5.353,5.353,239.779,257.891,256.462
0.078,7.336,5.357,5.357,239.845,257.924,256.699
0.079,7.645,5.353,5.353,239.936,257.958,256.993
0.081,8.008,5.334,5.334,240.048,257.997,257.335
0.082,8.412,5.299,5.299,240.179,258.042,257.715
0.084,8.850,5.248,5.248,240.325,258.096,258.124
0.085,9.311,5.190,5.190,240.483,258.161,258.553
0.087,9.785,5.130,5.130,240.648,258.240,258.990
0.088,10.264,5.074,5.074,240.817,258.335,259.428
0.090,10.738,5.030,5.030,240.988,258.448,259.856
0.091,11.200,5.003,5.003,241.155,258.583,260.264
0.093,11.641,4.997,4.997,241.317,258.740,260.643
0.094,12.057,5.012,5.012,241.469,258.923,260.984
0.096,12.443,5.044,5.044,241.608,259.134,261.276
0.097,12.802,5.093,5.093,241.731,259.375,261.512
0.099,13.142,5.156,5.156,241.838,259.643,261.692
0.100,13.474,5.231,5.231,241.934,259.933,261.822
0.102,13.804,5.317,5.317,242.021,260.239,261.910
0.103,14.136,5.410,5.410,242.102,260.557,261.962
0.105,14.470,5.510,5.510,242.180,260.881,261.985
0.106,14.805,5.613,5.613,242.259,261.206,261.985
0.108,15.136,5.718,5.718,242.342,261.526,261.968
0.109,15.461,5.823,5.823,242.431,261.837,261.942
0.111,15.775,5.925,5.925,242.531,262.133,261.913
0.112,16.074,6.022,6.022,242.644,262.410,261.888
0.114,16.356,6.114,6.114,242.773,262.660,261.873
0.116,16.622,6.198,6.198,242.922,262.880,261.874
0.117,16.875,6.275,6.275,243.093,263.066,261.897
0.119,17.123,6.343,6.343,243.281,263.221,261.939
0.120,17.369,6.402,6.402,243.484,263.348,261.997
0.122,17.617,6.449,6.449,243.698,263.450,262.069
0.123,17.867,6.486,6.486,243.919,263.533,262.151
0.125,18.117,6.514,6.514,244.144,263.598,262.240
0.126,18.365,6.535,6.535,244.368,263.650,262.333
0.128,18.607,6.553,6.553,244.587,263.692,262.426
0.129,18.841,6.568,6.568,244.799,263.728,262.518
0.131,19.061,6.583,6.583,244.998,263.762,262.604
0.132,19.264,6.601,6.601,245.183,263.798,262.681
0.134,19.446,6.622,6.622,245.347,263.838,262.747
0.135,19.604,6.647,6.647,245.489,263.887,262.798
0.137,19.740,6.676,6.676,245.606,263.946,262.834
0.138,19.859,6.710,6.710,245.702,264.012,262.856
0.140,19.965,6.749,6.749,245.779,264.084,262.867
0.141,20.061,6.793,6.793,245.840,264.159,262.868
0.143,20.150,6.843,6.842,245.887,264.234,262.861
0.144,20.233,6.895,6.894,245.922,264.309,262.849
0.146,20.310,6.946,6.945,245.949,264.379,262.833
0.147,20.381,6.992,6.991,245.970,264.444,262.815
0.149,20.442,7.029,7.029,245.988,264.501,262.798
0.150,20.494,7.055,7.054,246.005,264.547,262.783
0.152,20.534,7.064,7.065,246.023,264.581,262.772
0.153,20.564,7.058,7.059,246.047,264.600,262.768
0.155,20.595,7.039,7.041,246.077,264.602,262.772
0.157,20.635,7.013,7.016,246.113,264.590,262.784
0.158,20.685,6.985,6.988,246.155,264.570,262.803
0.160,20.743,6.960,6.962,246.200,264.545,262.830
0.161,20.805,6.942,6.943,246.247,264.521,262.863
0.163,20.869,6.936,6.934,246.294,264.503,262.901
0.164,20.933,6.941,6.936,246.341,264.494,262.944
0.166,20.998,6.953,6.944,246.384,264.501,262.992
0.167,21.068,6.966,6.956,246.424,264.528,263.043
0.169,21.150,6.976,6.966,246.457,264.579,263.097
0.170,21.252,6.979,6.972,246.484,264.661,263.153
0.172,21.382,6.970,6.970,246.501,264.776,263.211
0.173,21.548,6.946,6.958,246.508,264.931,263.270
0.175,21.753,6.912,6.937,246.504,265.128,263.328
0.176,21.994,6.872,6.913,246.490,265.361,263.387
0.178,22.265,6.831,6.887,246.467,265.625,263.446
0.179,22.561,6.797,6.866,246.436,265.913,263.503
0.181,22.874,6.774,6.851,246.399,266.219,263.560
0.182,23.200,6.768,6.848,246.357,266.537,263.615
0.184,23.532,6.780,6.857,246.311,266.861,263.668
0.185,23.863,6.806,6.877,246.263,267.185,263.719
0.187,24.188,6.844,6.906,246.214,267.503,263.768
0.188,24.500,6.888,6.943,246.165,267.807,263.814
0.190,24.793,6.934,6.985,246.118,268.093,263.856
0.191,25.061,6.979,7.031,246.074,268.354,263.896
0.193,25.297,7.019,7.079,246.033,268.584,263.931
0.195,25.500,7.053,7.128,245.998,268.781,263.963
0.196,25.671,7.082,7.175,245.967,268.948,263.990
0.198,25.813,7.108,7.220,245.939,269.086,264.013
0.199,25.930,7.131,7.261,245.915,269.198,264.031
0.201,26.022,7.152,7.296,245.895,269.287,264.045
0.202,26.093,7.174,7.324,245.877,269.355,264.053
0.204,26.146,7.196,7.343,245.861,269.405,264.057
0.205,26.183,7.218,7.355,245.847,269.440,264.055
0.207,26.208,7.238,7.358,245.835,269.461,264.048
0.208,26.228,7.254,7.355,245.824,269.471,264.035
0.210,26.250,7.266,7.345,245.814,269.474,264.016
0.211,26.276,7.271,7.329,245.804,269.470,263.992
0.213,26.309,7.268,7.308,245.794,269.464,263.961
0.214,26.346,7.258,7.282,245.784,269.455,263.926
0.216,26.384,7.243,7.255,245.775,269.446,263.890
0.217,26.421,7.226,7.230,245.766,269.438,263.856
0.219,26.453,7.210,7.209,245.759,269.432,263.826
0.220,26.477,7.198,7.195,245.753,269.429,263.802
0.222,26.491,7.192,7.191,245.750,269.430,263.789
0.223,26.498,7.195,7.200,245.748,269.437,263.787
0.225,26.517,7.205,7.218,245.750,269.450,263.801
0.226,26.556,7.219,7.243,245.754,269.472,263.833
0.228,26.617,7.235,7.270,245.761,269.502,263.885
0.229,26.703,7.249,7.294,245.773,269.543,263.960
0.231,26.818,7.257,7.312,245.788,269.595,264.062
0.233,26.963,7.257,7.319,245.808,269.659,264.190
0.234,27.134,7.248,7.313,245.831,269.734,264.342
0.236,27.325,7.230,7.296,245.857,269.817,264.512
0.237,27.532,7.207,7.274,245.884,269.907,264.697
0.239,27.750,7.182,7.249,245.913,270.002,264.891
0.240,27.975,7.157,7.225,245.941,270.100,265.091
0.242,28.200,7.135,7.207,245.969,270.199,265.291
0.243,28.422,7.118,7.198,245.996,270.298,265.488
0.245,28.635,7.107,7.198,246.020,270.393,265.677
0.246,28.835,7.102,7.206,246.042,270.485,265.854
0.248,29.017,7.100,7.219,246.059,270.570,266.014
0.249,29.176,7.101,7.236,246.072,270.648,266.152
0.251,29.308,7.103,7.253,246.079,270.715,266.264
0.252,29.411,7.106,7.268,246.080,270.773,266.350
0.254,29.490,7.107,7.280,246.077,270.820,266.413
0.255,29.547,7.108,7.289,246.070,270.860,266.454
0.257,29.587,7.110,7.294,246.059,270.891,266.477
0.258,29.616,7.112,7.298,246.045,270.916,266.485
0.260,29.641,7.117,7.300,246.029,270.934,266.480
0.261,29.667,7.125,7.301,246.012,270.947,266.466
0.263,29.696,7.136,7.303,245.994,270.957,266.444
0.264,29.728,7.152,7.305,245.977,270.962,266.419
0.266,29.759,7.171,7.307,245.960,270.966,266.393
0.267,29.788,7.191,7.309,245.944,270.967,266.369
0.269,29.812,7.210,7.310,245.931,270.968,266.349
0.271,29.828,7.227,7.311,245.920,270.969,266.336
0.272,29.838,7.240,7.310,245.912,270.970,266.330
0.274,29.844,7.247,7.308,245.907,270.971,266.330
0.275,29.850,7.248,7.304,245.903,270.972,266.335
0.277,29.858,7.245,7.299,245.902,270.973,266.343
0.278,29.869,7.239,7.294,245.902,270.974,266.354
0.280,29.881,7.231,7.289,245.903,270.974,266.366
0.281,29.893,7.223,7.285,245.905,270.974,266.378
0.283,29.905,7.217,7.282,245.908,270.974,266.389
0.284,29.915,7.214,7.282,245.912,270.974,266.398
0.286,29.922,7.213,7.283,245.915,270.973,266.404
0.287,29.926,7.215,7.285,245.918,270.971,266.406
0.289,29.931,7.218,7.288,245.921,270.969,266.403
0.290,29.941,7.223,7.292,245.923,270.965,266.394
0.292,29.953,7.229,7.297,245.925,270.962,266.382
0.293,29.965,7.236,7.300,245.925,270.958,266.371
0.295,29.974,7.243,7.303,245.925,270.953,266.363
0.296,29.979,7.247,7.303,245.923,270.949,266.361
0.298,29.988,7.247,7.298,245.921,270.944,266.368
0.299,30.008,7.241,7.287,245.918,270.940,266.387
0.301,30.042,7.227,7.266,245.914,270.937,266.421
0.302,30.094,7.202,7.235,245.908,270.934,266.473
0.304,30.168,7.165,7.192,245.902,270.932,266.546
0.305,30.265,7.115,7.136,245.894,270.930,266.643
0.307,30.389,7.055,7.071,245.885,270.930,266.766
0.309,30.542,6.987,6.997,245.874,270.931,266.919
0.310,30.725,6.912,6.917,245.863,270.934,267.102
0.312,30.934,6.832,6.834,245.851,270.939,267.310
0.313,31.165,6.749,6.749,245.838,270.946,267.541
0.315,31.415,6.665,6.664,245.825,270.956,267.791
0.316,31.682,6.583,6.582,245.813,270.970,268.057
0.318,31.961,6.504,6.503,245.801,270.987,268.335
0.319,32.250,6.430,6.430,245.790,271.009,268.623
0.321,32.544,6.364,6.365,245.780,271.035,268.916
0.322,32.841,6.308,6.308,245.772,271.067,269.211
0.324,33.138,6.263,6.263,245.766,271.104,269.506
0.325,33.431,6.231,6.229,245.762,271.148,269.796
0.327,33.718,6.211,6.206,245.761,271.198,270.078
0.328,33.995,6.200,6.193,245.763,271.255,270.349
0.330,34.263,6.197,6.189,245.768,271.318,270.609
0.331,34.520,6.200,6.194,245.775,271.387,270.856
0.333,34.766,6.208,6.206,245.785,271.461,271.091
0.334,35.001,6.219,6.224,245.797,271.540,271.313
0.336,35.226,6.232,6.248,245.811,271.622,271.521
0.337,35.439,6.246,6.275,245.827,271.707,271.716
0.339,35.640,6.262,6.305,245.845,271.794,271.896
0.340,35.829,6.278,6.336,245.864,271.883,272.062
0.342,36.006,6.294,6.366,245.884,271.972,272.213
0.343,36.170,6.309,6.395,245.905,272.062,272.349
0.345,36.321,6.324,6.420,245.927,272.151,272.469
0.347,36.459,6.337,6.443,245.949,272.239,272.573
0.348,36.584,6.350,6.464,245.972,272.325,272.661
0.350,36.699,6.362,6.483,245.994,272.409,272.736
0.351,36.804,6.372,6.500,246.017,272.491,272.798
0.353,36.901,6.381,6.516,246.039,272.569,272.851
0.354,36.992,6.389,6.531,246.061,272.645,272.895
0.356,37.077,6.397,6.546,246.083,272.718,272.934
0.357,37.156,6.403,6.561,246.104,272.787,272.968
0.359,37.232,6.410,6.574,246.123,272.852,273.000
0.360,37.303,6.417,6.585,246.142,272.913,273.032
0.362,37.371,6.426,6.596,246.159,272.969,273.066
0.363,37.437,6.436,6.604,246.175,273.021,273.104
0.365,37.503,6.448,6.609,246.189,273.068,273.147
0.366,37.570,6.462,6.614,246.202,273.110,273.198
0.368,37.640,6.478,6.619,246.213,273.147,273.257
0.369,37.716,6.497,6.626,246.224,273.183,273.323
0.371,37.798,6.518,6.637,246.235,273.219,273.395
0.372,37.886,6.542,6.653,246.248,273.257,273.474
0.374,37.980,6.567,6.676,246.262,273.300,273.557
0.375,38.082,6.595,6.706,246.280,273.349,273.643
0.377,38.191,6.625,6.743,246.303,273.407,273.734
0.378,38.310,6.658,6.784,246.330,273.476,273.826
0.380,38.439,6.692,6.827,246.363,273.558,273.920
0.381,38.581,6.729,6.870,246.403,273.655,274.015
0.383,38.737,6.768,6.911,246.450,273.770,274.110
0.384,38.910,6.809,6.949,246.506,273.904,274.204
0.386,39.102,6.852,6.982,246.572,274.059,274.296
0.388,39.311,6.898,7.014,246.645,274.233,274.387
0.389,39.533,6.947,7.049,246.725,274.420,274.474
0.391,39.764,7.000,7.088,246.810,274.618,274.558
0.392,40.000,7.056,7.135,246.897,274.822,274.638
0.394,40.237,7.118,7.193,246.986,275.029,274.714
0.395,40.471,7.184,7.263,247.074,275.234,274.785
0.397,40.698,7.253,7.344,247.160,275.433,274.851
0.398,40.913,7.322,7.429,247.242,275.623,274.910
0.400,41.112,7.389,7.513,247.318,275.799,274.963
0.401,41.292,7.451,7.592,247.387,275.958,275.009
0.403,41.446,7.505,7.660,247.447,276.095,275.047
0.404,41.572,7.549,7.711,247.497,276.207,275.077
0.406,41.668,7.581,7.742,247.535,276.292,275.099
0.407,41.736,7.602,7.757,247.562,276.353,275.113
0.409,41.779,7.614,7.759,247.581,276.391,275.121
0.410,41.802,7.618,7.752,247.591,276.411,275.125
0.412,41.807,7.616,7.741,247.594,276.415,275.124
0.413,41.817,7.610,7.728,247.591,276.406,275.120
0.415,41.839,7.601,7.717,247.584,276.387,275.114
0.416,41.868,7.591,7.711,247.574,276.361,275.107
0.418,41.902,7.580,7.708,247.562,276.330,275.101
0.419,41.937,7.570,7.707,247.548,276.298,275.095
0.421,41.971,7.562,7.707,247.535,276.267,275.092
0.422,41.999,7.556,7.707,247.523,276.241,275.092
0.424,42.021,7.555,7.706,247.513,276.221,275.097
0.426,42.037,7.559,7.703,247.507,276.210,275.106
0.427,42.051,7.568,7.699,247.502,276.206,275.118
0.429,42.066,7.579,7.694,247.500,276.208,275.133
0.430,42.085,7.591,7.690,247.500,276.216,275.151
0.432,42.108,7.603,7.687,247.500,276.228,275.169
0.433,42.133,7.614,7.686,247.502,276.245,275.188
0.435,42.161,7.621,7.689,247.504,276.265,275.207
0.436,42.189,7.624,7.696,247.506,276.288,275.224
0.438,42.219,7.624,7.706,247.507,276.312,275.240
0.439,42.247,7.619,7.719,247.509,276.338,275.254
0.441,42.275,7.610,7.734,247.508,276.363,275.264
0.442,42.301,7.598,7.751,247.507,276.389,275.270
0.444,42.325,7.582,7.768,247.504,276.413,275.272
0.445,42.349,7.562,7.786,247.499,276.436,275.272
0.447,42.373,7.541,7.804,247.494,276.459,275.272
0.448,42.397,7.520,7.819,247.490,276.483,275.277
0.450,42.425,7.502,7.832,247.486,276.508,275.288
0.451,42.458,7.490,7.841,247.484,276.534,275.308
0.453,42.501,7.487,7.844,247.485,276.562,275.341
0.454,42.558,7.496,7.842,247.488,276.593,275.389
0.456,42.633,7.518,7.832,247.496,276.627,275.455
0.457,42.729,7.550,7.816,247.508,276.665,275.542
0.459,42.849,7.587,7.795,247.526,276.707,275.653
0.460,42.997,7.625,7.770,247.549,276.754,275.791
0.462,43.175,7.659,7.743,247.580,276.807,275.959
0.464,43.384,7.684,7.715,247.617,276.866,276.156
0.465,43.619,7.696,7.687,247.661,276.929,276.377
0.467,43.874,7.692,7.661,247.712,276.998,276.618
0.468,44.145,7.676,7.637,247.768,277.071,276.873
0.470,44.426,7.652,7.614,247.830,277.148,277.136
0.471,44.711,7.622,7.594,247.896,277.228,277.401
0.473,44.996,7.591,7.575,247.967,277.311,277.665
0.474,45.276,7.562,7.558,248.042,277.396,277.920
0.476,45.545,7.539,7.544,248.120,277.484,278.162
0.477,45.798,7.523,7.532,248.201,277.572,278.386
0.479,46.032,7.512,7.522,248.285,277.662,278.585
0.480,46.243,7.505,7.514,248.372,277.753,278.754
0.482,46.428,7.501,7.507,248.459,277.843,278.889
0.483,46.589,7.499,7.502,248.548,277.933,278.989
0.485,46.733,7.497,7.497,248.637,278.022,279.059
0.486,46.864,7.495,7.493,248.726,278.109,279.100
0.488,46.986,7.493,7.491,248.813,278.194,279.118
0.489,47.105,7.492,7.489,248.898,278.276,279.115
0.491,47.220,7.491,7.489,248.979,278.355,279.095
0.492,47.333,7.493,7.491,249.057,278.430,279.061
0.494,47.443,7.496,7.496,249.130,278.500,279.018
0.495,47.549,7.503,7.503,249.198,278.566,278.968
0.497,47.650,7.512,7.513,249.259,278.625,278.915
0.498,47.742,7.524,7.524,249.313,278.679,278.863
0.500,47.823,7.536,7.536,249.358,278.725,278.815
0.502,47.891,7.547,7.547,249.396,278.765,278.774
0.503,47.948,7.557,7.557,249.426,278.798,278.740
0.505,47.993,7.565,7.565,249.450,278.825,278.712
0.506,48.030,7.569,7.569,249.469,278.848,278.691
0.508,48.059,7.570,7.571,249.484,278.867,278.676
0.509,48.082,7.568,7.569,249.498,278.884,278.666
0.511,48.103,7.565,7.567,249.511,278.898,278.660
0.512,48.122,7.561,7.563,249.524,278.912,278.659
0.514,48.143,7.558,7.560,249.540,278.926,278.662
0.515,48.167,7.557,7.557,249.559,278.940,278.669
0.517,48.198,7.558,7.555,249.582,278.957,278.678
0.518,48.235,7.560,7.555,249.612,278.976,278.690
0.520,48.280,7.562,7.556,249.649,278.999,278.704
0.521,48.335,7.564,7.556,249.694,279.026,278.720
0.523,48.398,7.563,7.557,249.745,279.056,278.737
0.524,48.467,7.560,7.556,249.803,279.091,278.755
0.526,48.542,7.552,7.555,249.866,279.128,278.773
0.527,48.622,7.540,7.552,249.932,279.168,278.793
0.529,48.705,7.523,7.548,250.001,279.210,278.812
0.530,48.791,7.504,7.543,250.072,279.255,278.832
0.532,48.878,7.483,7.538,250.143,279.301,278.851
0.533,48.966,7.459,7.532,250.215,279.349,278.869
0.535,49.053,7.436,7.526,250.285,279.397,278.887
0.536,49.138,7.412,7.519,250.352,279.446,278.903
0.538,49.221,7.389,7.513,250.417,279.495,278.918
0.540,49.299,7.367,7.507,250.477,279.544,278.932
0.541,49.374,7.346,7.500,250.532,279.593,278.943
0.543,49.446,7.328,7.493,250.584,279.642,278.954
0.544,49.514,7.312,7.485,250.632,279.689,278.964
0.546,49.579,7.299,7.477,250.676,279.736,278.974
0.547,49.642,7.290,7.468,250.718,279.781,278.984
0.549,49.702,7.283,7.458,250.758,279.825,278.995
0.550,49.760,7.278,7.448,250.796,279.867,279.008
0.552,49.816,7.275,7.439,250.831,279.907,279.021
0.553,49.870,7.272,7.430,250.866,279.946,279.038
0.555,49.923,7.269,7.422,250.900,279.982,279.056
0.556,49.975,7.266,7.416,250.934,280.015,279.078
0.558,50.027,7.261,7.411,250.968,280.046,279.104
0.559,50.080,7.255,7.407,251.002,280.075,279.133
0.561,50.134,7.249,7.402,251.036,280.100,279.165
0.562,50.189,7.242,7.396,251.070,280.124,279.200
0.564,50.243,7.235,7.388,251.105,280.146,279.237
0.565,50.298,7.228,7.377,251.139,280.166,279.275
0.567,50.353,7.221,7.362,251.172,280.185,279.314
0.568,50.407,7.214,7.344,251.205,280.203,279.353
0.570,50.460,7.207,7.326,251.238,280.221,279.390
0.571,50.511,7.201,7.307,251.269,280.239,279.426
0.573,50.561,7.196,7.291,251.300,280.258,279.460
0.574,50.607,7.192,7.279,251.329,280.277,279.491
0.576,50.651,7.190,7.272,251.357,280.297,279.519
0.578,50.692,7.189,7.271,251.383,280.318,279.542
0.579,50.732,7.188,7.273,251.409,280.341,279.561
0.581,50.771,7.187,7.277,251.436,280.367,279.575
0.582,50.813,7.185,7.279,251.465,280.395,279.585
0.584,50.859,7.181,7.277,251.499,280.426,279.590
0.585,50.912,7.173,7.268,251.539,280.461,279.592
0.587,50.974,7.162,7.249,251.587,280.499,279.589
0.588,51.047,7.146,7.221,251.645,280.543,279.583
0.590,51.132,7.125,7.183,251.715,280.591,279.573
0.591,51.232,7.097,7.139,251.798,280.645,279.559
0.593,51.349,7.064,7.089,251.897,280.704,279.542
0.594,51.484,7.023,7.034,252.013,280.770,279.522
0.596,51.639,6.975,6.977,252.148,280.843,279.498
0.597,51.816,6.919,6.918,252.304,280.923,279.472
0.599,52.013,6.858,6.859,252.478,281.009,279.443
0.600,52.225,6.796,6.802,252.667,281.101,279.414
0.602,52.450,6.734,6.748,252.869,281.197,279.386
0.603,52.684,6.678,6.698,253.079,281.297,279.360
0.605,52.923,6.630,6.656,253.294,281.399,279.338
0.606,53.164,6.594,6.621,253.510,281.502,279.321
0.608,53.402,6.572,6.594,253.725,281.606,279.310
0.609,53.635,6.560,6.576,253.934,281.708,279.307
0.611,53.859,6.556,6.564,254.134,281.809,279.313
0.612,54.072,6.557,6.558,254.323,281.906,279.330
0.614,54.270,6.560,6.557,254.495,282.000,279.358
0.616,54.452,6.561,6.559,254.648,282.088,279.401
0.617,54.617,6.559,6.563,254.780,282.170,279.457
0.619,54.770,6.552,6.570,254.893,282.248,279.526
