"T","Distance","Radius","FreeRadius","X","Y","Z"
0.000,0.000,1.794,1.794,28.576,263.608,-5.938
0.001,0.156,1.740,1.740,28.521,263.599,-5.793
0.002,0.311,1.687,1.687,28.465,263.591,-5.647
0.004,0.468,1.637,1.637,28.409,263.587,-5.502
0.005,0.625,1.589,1.589,28.351,263.586,-5.356
0.006,0.783,1.545,1.545,28.290,263.592,-5.209
0.007,0.943,1.505,1.505,28.228,263.606,-5.062
0.008,1.106,1.471,1.471,28.162,263.629,-4.915
0.010,1.273,1.444,1.444,28.093,263.662,-4.767
0.011,1.446,1.425,1.425,28.020,263.707,-4.618
0.012,1.625,1.413,1.413,27.942,263.766,-4.467
0.013,1.813,1.408,1.408,27.859,263.841,-4.316
0.014,2.011,1.410,1.410,27.770,263.932,-4.164
0.016,2.221,1.418,1.418,27.676,264.040,-4.010
0.017,2.442,1.432,1.432,27.577,264.164,-3.857
0.018,2.670,1.452,1.452,27.473,264.299,-3.706
0.019,2.901,1.476,1.476,27.367,264.441,-3.557
0.020,3.133,1.505,1.505,27.259,264.588,-3.413
0.022,3.361,1.538,1.538,27.150,264.734,-3.276
0.023,3.583,1.573,1.573,27.042,264.877,-3.146
0.024,3.793,1.611,1.611,26.935,265.013,-3.026
0.025,3.989,1.649,1.649,26.832,265.138,-2.917
0.026,4.167,1.687,1.687,26.732,265.249,-2.820
0.028,4.323,1.725,1.725,26.637,265.341,-2.737
0.029,4.455,1.760,1.760,26.548,265.411,-2.669
0.030,4.561,1.792,1.792,26.466,265.457,-2.618
0.031,4.646,1.820,1.820,26.394,265.481,-2.583
0.032,4.712,1.843,1.843,26.332,265.488,-2.560
0.034,4.762,1.859,1.859,26.283,265.484,-2.548
0.035,4.798,1.867,1.867,26.249,265.473,-2.544
0.036,4.820,1.867,1.867,26.232,265.460,-2.547
0.037,4.832,1.856,1.856,26.233,265.450,-2.553
0.038,4.855,1.833,1.833,26.254,265.449,-2.561
0.040,4.901,1.798,1.798,26.298,265.461,-2.569
0.041,4.975,1.748,1.748,26.366,265.492,-2.573
0.042,5.084,1.686,1.686,26.460,265.546,-2.571
0.043,5.231,1.616,1.616,26.582,265.628,-2.563
0.044,5.423,1.543,1.543,26.733,265.744,-2.544
0.046,5.655,1.473,1.473,26.911,265.891,-2.517
0.047,5.923,1.412,1.412,27.112,266.065,-2.483
0.048,6.221,1.363,1.363,27.331,266.263,-2.446
0.049,6.542,1.334,1.334,27.563,266.481,-2.406
0.050,6.880,1.328,1.328,27.805,266.714,-2.366
0.052,7.229,1.351,1.351,28.051,266.960,-2.329
0.053,7.584,1.400,1.400,28.297,267.213,-2.297
0.054,7.938,1.472,1.472,28.539,267.470,-2.271
0.055,8.286,1.562,1.562,28.773,267.727,-2.255
0.056,8.622,1.668,1.668,28.993,267.981,-2.250
0.058,8.940,1.785,1.785,29.196,268.226,-2.259
0.059,9.237,1.909,1.909,29.378,268.459,-2.283
0.060,9.512,2.038,2.038,29.537,268.680,-2.322
0.061,9.767,2.167,2.167,29.675,268.888,-2.374
0.062,10.003,2.293,2.293,29.794,269.083,-2.436
0.064,10.222,2.415,2.415,29.893,269.264,-2.507
0.065,10.425,2.528,2.528,29.976,269.433,-2.583
0.066,10.612,2.632,2.632,30.043,269.589,-2.663
0.067,10.784,2.723,2.723,30.094,269.731,-2.744
0.068,10.941,2.799,2.799,30.133,269.860,-2.825
0.070,11.083,2.858,2.858,30.159,269.977,-2.902
0.071,11.210,2.898,2.898,30.174,270.080,-2.975
0.072,11.321,2.917,2.917,30.179,270.170,-3.039
0.073,11.416,2.919,2.919,30.176,270.247,-3.094
0.074,11.495,2.908,2.908,30.166,270.312,-3.138
0.076,11.562,2.888,2.888,30.151,270.367,-3.173
0.077,11.618,2.864,2.864,30.133,270.414,-3.198
0.078,11.667,2.840,2.840,30.114,270.455,-3.215
0.079,11.709,2.820,2.820,30.095,270.492,-3.223
0.080,11.747,2.808,2.808,30.080,270.527,-3.223
0.082,11.784,2.809,2.809,30.068,270.562,-3.216
0.083,11.824,2.822,2.822,30.064,270.599,-3.203
0.084,11.869,2.848,2.848,30.067,270.640,-3.183
0.085,11.924,2.884,2.884,30.081,270.686,-3.157
0.086,11.991,2.928,2.928,30.106,270.740,-3.126
0.088,12.074,2.981,2.981,30.146,270.804,-3.090
0.089,12.173,3.040,3.040,30.199,270.877,-3.050
0.090,12.286,3.104,3.104,30.263,270.960,-3.009
0.091,12.411,3.172,3.172,30.336,271.051,-2.967
0.092,12.544,3.243,3.243,30.416,271.150,-2.925
0.094,12.685,3.315,3.315,30.501,271.255,-2.887
0.095,12.830,3.387,3.387,30.587,271.367,-2.852
0.096,12.978,3.457,3.457,30.674,271.483,-2.823
0.097,13.126,3.524,3.524,30.759,271.603,-2.801
0.098,13.274,3.587,3.587,30.839,271.726,-2.788
0.100,13.420,3.645,3.645,30.912,271.852,-2.786
0.101,13.563,3.696,3.696,30.977,271.980,-2.795
0.102,13.703,3.739,3.739,31.030,272.108,-2.818
0.103,13.842,3.774,3.774,31.072,272.235,-2.854
0.104,13.980,3.803,3.803,31.103,272.362,-2.900
0.106,14.118,3.827,3.827,31.125,272.485,-2.956
0.107,14.253,3.847,3.847,31.138,272.605,-3.019
0.108,14.386,3.864,3.864,31.145,272.719,-3.086
0.109,14.515,3.879,3.879,31.146,272.827,-3.155
0.110,14.637,3.894,3.894,31.142,272.928,-3.225
0.112,14.752,3.909,3.909,31.135,273.021,-3.292
0.113,14.857,3.924,3.924,31.125,273.103,-3.356
0.114,14.949,3.940,3.940,31.115,273.175,-3.414
0.115,15.027,3.956,3.956,31.104,273.234,-3.463
0.116,15.088,3.971,3.971,31.095,273.280,-3.502
0.118,15.132,3.985,3.985,31.089,273.313,-3.530
0.119,15.161,3.998,3.998,31.084,273.335,-3.548
0.120,15.178,4.008,4.008,31.082,273.349,-3.559
0.121,15.185,4.017,4.017,31.083,273.355,-3.563
0.122,15.190,4.023,4.023,31.087,273.356,-3.562
0.124,15.198,4.027,4.027,31.095,273.355,-3.559
0.125,15.210,4.029,4.029,31.106,273.353,-3.554
0.126,15.226,4.031,4.031,31.121,273.352,-3.549
0.127,15.245,4.033,4.033,31.139,273.355,-3.546
0.128,15.270,4.036,4.036,31.163,273.363,-3.546
0.130,15.302,4.040,4.040,31.190,273.379,-3.551
0.131,15.345,4.047,4.047,31.223,273.405,-3.562
0.132,15.400,4.056,4.056,31.259,273.441,-3.581
0.133,15.467,4.069,4.069,31.300,273.487,-3.607
0.134,15.544,4.085,4.085,31.344,273.542,-3.639
0.136,15.630,4.104,4.104,31.389,273.604,-3.678
0.137,15.725,4.126,4.126,31.436,273.673,-3.723
0.138,15.827,4.152,4.152,31.483,273.748,-3.774
0.139,15.935,4.181,4.181,31.530,273.827,-3.831
0.140,16.048,4.213,4.213,31.575,273.911,-3.892
0.142,16.165,4.248,4.248,31.618,273.996,-3.958
0.143,16.284,4.286,4.286,31.658,274.084,-4.029
0.144,16.405,4.327,4.327,31.694,274.172,-4.104
0.145,16.527,4.369,4.369,31.725,274.260,-4.182
0.146,16.650,4.413,4.413,31.751,274.347,-4.264
0.148,16.773,4.458,4.458,31.772,274.434,-4.350
0.149,16.897,4.502,4.502,31.787,274.519,-4.439
0.150,17.023,4.546,4.546,31.798,274.604,-4.531
0.151,17.151,4.588,4.588,31.804,274.689,-4.627
0.152,17.280,4.629,4.629,31.806,274.773,-4.725
0.154,17.412,4.668,4.668,31.803,274.857,-4.826
0.155,17.546,4.707,4.707,31.797,274.941,-4.930
0.156,17.682,4.746,4.746,31.786,275.026,-5.037
0.157,17.821,4.785,4.785,31.772,275.110,-5.146
0.158,17.963,4.826,4.826,31.754,275.195,-5.258
0.160,18.108,4.870,4.870,31.733,275.281,-5.372
0.161,18.254,4.916,4.916,31.708,275.367,-5.489
0.162,18.402,4.967,4.967,31.682,275.453,-5.606
0.163,18.549,5.021,5.021,31.653,275.538,-5.722
0.164,18.693,5.076,5.076,31.624,275.620,-5.837
0.166,18.834,5.132,5.132,31.594,275.699,-5.950
0.167,18.969,5.187,5.187,31.564,275.775,-6.058
0.168,19.097,5.239,5.239,31.536,275.845,-6.161
0.169,19.216,5.286,5.286,31.509,275.910,-6.258
0.170,19.326,5.326,5.326,31.484,275.968,-6.346
0.172,19.423,5.359,5.359,31.462,276.019,-6.427
0.173,19.507,5.382,5.382,31.444,276.061,-6.497
0.174,19.575,5.397,5.397,31.430,276.094,-6.555
0.175,19.628,5.404,5.404,31.420,276.117,-6.602
0.176,19.668,5.406,5.406,31.416,276.131,-6.639
0.178,19.696,5.404,5.404,31.415,276.138,-6.666
0.179,19.717,5.398,5.398,31.418,276.139,-6.686
0.180,19.733,5.391,5.391,31.424,276.135,-6.701
0.181,19.749,5.384,5.384,31.434,276.127,-6.711
0.182,19.767,5.378,5.378,31.446,276.117,-6.718
0.184,19.786,5.374,5.374,31.461,276.105,-6.725
0.185,19.808,5.371,5.371,31.478,276.094,-6.732
0.186,19.831,5.370,5.370,31.497,276.085,-6.742
0.187,19.856,5.370,5.370,31.517,276.078,-6.755
0.188,19.884,5.371,5.371,31.538,276.075,-6.773
0.190,19.918,5.373,5.373,31.560,276.077,-6.799
0.191,19.957,5.376,5.376,31.583,276.082,-6.830
0.192,20.002,5.379,5.379,31.607,276.091,-6.867
0.193,20.051,5.383,5.383,31.631,276.101,-6.908
0.194,20.104,5.386,5.386,31.655,276.112,-6.954
0.196,20.160,5.387,5.387,31.680,276.122,-7.004
0.197,20.219,5.387,5.387,31.706,276.131,-7.056
0.198,20.279,5.383,5.383,31.731,276.137,-7.110
0.199,20.341,5.376,5.376,31.757,276.139,-7.166
0.200,20.403,5.365,5.365,31.783,276.136,-7.223
0.202,20.467,5.347,5.347,31.810,276.127,-7.279
0.203,20.531,5.324,5.324,31.836,276.111,-7.336
0.204,20.597,5.296,5.296,31.863,276.087,-7.391
0.205,20.665,5.263,5.263,31.890,276.056,-7.445
0.206,20.735,5.228,5.228,31.919,276.023,-7.500
0.208,20.808,5.192,5.192,31.951,275.989,-7.555
0.209,20.882,5.156,5.156,31.987,275.956,-7.611
0.210,20.958,5.122,5.122,32.027,275.928,-7.669
0.211,21.036,5.092,5.092,32.073,275.906,-7.730
0.212,21.119,5.066,5.066,32.126,275.894,-7.793
0.214,21.209,5.046,5.046,32.185,275.894,-7.859
0.215,21.308,5.031,5.031,32.253,275.908,-7.930
0.216,21.420,5.019,5.019,32.331,275.939,-8.006
0.217,21.550,5.012,5.012,32.418,275.990,-8.086
0.218,21.699,5.006,5.006,32.517,276.062,-8.172
0.220,21.868,5.003,5.003,32.625,276.154,-8.263
0.221,22.053,5.000,5.000,32.741,276.264,-8.358
0.222,22.253,4.998,4.998,32.864,276.387,-8.456
0.223,22.464,4.996,4.996,32.992,276.524,-8.554
0.224,22.684,4.994,4.994,33.123,276.669,-8.654
0.226,22.909,4.993,4.993,33.256,276.821,-8.752
0.227,23.137,4.993,4.993,33.390,276.978,-8.849
0.228,23.363,4.995,4.995,33.522,277.136,-8.943
0.229,23.586,5.000,5.000,33.651,277.294,-9.032
0.230,23.801,5.008,5.008,33.776,277.448,-9.116
0.232,24.006,5.020,5.020,33.895,277.595,-9.195
0.233,24.197,5.036,5.036,34.006,277.734,-9.265
0.234,24.375,5.057,5.057,34.109,277.864,-9.329
0.235,24.537,5.080,5.081,34.203,277.984,-9.385
0.236,24.685,5.106,5.106,34.289,278.093,-9.435
0.238,24.817,5.132,5.132,34.365,278.192,-9.478
0.239,24.934,5.158,5.158,34.431,278.281,-9.515
0.240,25.034,5.182,5.182,34.487,278.358,-9.547
0.241,25.118,5.203,5.203,34.532,278.423,-9.574
0.242,25.185,5.220,5.220,34.566,278.477,-9.595
0.244,25.235,5.232,5.232,34.589,278.518,-9.612
0.245,25.268,5.239,5.239,34.600,278.546,-9.625
0.246,25.286,5.243,5.243,34.599,278.562,-9.634
0.247,25.301,5.243,5.243,34.585,278.565,-9.639
0.248,25.326,5.241,5.240,34.562,278.557,-9.641
0.250,25.358,5.236,5.236,34.533,278.541,-9.641
0.251,25.394,5.230,5.230,34.503,278.522,-9.640
0.252,25.429,5.223,5.223,34.475,278.503,-9.638
0.253,25.456,5.216,5.217,34.453,278.486,-9.637
0.255,25.470,5.210,5.211,34.443,278.477,-9.636
0.256,25.474,5.206,5.208,34.447,278.477,-9.636
0.257,25.501,5.206,5.207,34.469,278.491,-9.639
0.258,25.556,5.209,5.211,34.515,278.521,-9.645
0.259,25.645,5.219,5.221,34.587,278.573,-9.655
0.261,25.773,5.236,5.237,34.690,278.648,-9.669
0.262,25.946,5.261,5.262,34.827,278.750,-9.689
0.263,26.159,5.295,5.295,34.997,278.877,-9.714
0.264,26.406,5.340,5.338,35.192,279.024,-9.745
0.265,26.678,5.392,5.388,35.408,279.187,-9.780
0.267,26.970,5.450,5.445,35.639,279.361,-9.820
0.268,27.272,5.513,5.506,35.878,279.540,-9.865
0.269,27.578,5.577,5.569,36.119,279.721,-9.914
0.270,27.880,5.641,5.634,36.358,279.898,-9.968
0.271,28.170,5.702,5.698,36.588,280.067,-10.025
0.273,28.443,5.760,5.759,36.802,280.222,-10.087
0.274,28.689,5.811,5.816,36.996,280.360,-10.152
0.275,28.903,5.856,5.869,37.164,280.474,-10.221
0.276,29.080,5.896,5.916,37.299,280.562,-10.292
0.277,29.220,5.930,5.959,37.402,280.622,-10.367
0.279,29.333,5.960,5.997,37.476,280.658,-10.444
0.280,29.426,5.986,6.031,37.524,280.674,-10.522
0.281,29.509,6.009,6.059,37.550,280.671,-10.601
0.282,29.590,6.029,6.082,37.558,280.654,-10.679
0.283,29.673,6.048,6.099,37.551,280.626,-10.758
0.285,29.761,6.064,6.112,37.532,280.589,-10.835
0.286,29.850,6.079,6.121,37.506,280.548,-10.910
0.287,29.940,6.092,6.126,37.475,280.506,-10.982
0.288,30.026,6.104,6.130,37.442,280.464,-11.051
0.289,30.106,6.114,6.131,37.413,280.428,-11.116
0.291,30.177,6.123,6.133,37.389,280.400,-11.176
0.292,30.238,6.130,6.134,37.372,280.380,-11.232
0.293,30.291,6.136,6.136,37.362,280.368,-11.282
0.294,30.338,6.141,6.140,37.357,280.364,-11.328
0.295,30.379,6.145,6.146,37.357,280.365,-11.369
0.297,30.416,6.148,6.152,37.360,280.371,-11.406
0.298,30.450,6.150,6.159,37.366,280.380,-11.438
0.299,30.481,6.151,6.166,37.374,280.393,-11.465
0.300,30.510,6.152,6.171,37.383,280.407,-11.488
0.301,30.535,6.152,6.176,37.392,280.422,-11.507
0.303,30.558,6.151,6.178,37.401,280.437,-11.522
0.304,30.576,6.151,6.178,37.408,280.450,-11.532
0.305,30.589,6.150,6.175,37.412,280.461,-11.538
0.306,30.598,6.149,6.171,37.415,280.469,-11.541
0.307,30.604,6.148,6.167,37.415,280.475,-11.541
0.309,30.607,6.147,6.163,37.413,280.477,-11.539
0.310,30.612,6.145,6.160,37.410,280.477,-11.535
0.311,30.618,6.144,6.159,37.406,280.475,-11.532
0.312,30.625,6.142,6.160,37.402,280.469,-11.529
0.313,30.633,6.141,6.165,37.398,280.462,-11.527
0.315,30.644,6.139,6.174,37.395,280.452,-11.528
0.316,30.658,6.137,6.186,37.393,280.439,-11.532
0.317,30.674,6.134,6.200,37.392,280.424,-11.540
0.318,30.696,6.129,6.213,37.393,280.407,-11.552
0.319,30.723,6.122,6.225,37.397,280.388,-11.571
0.321,30.756,6.113,6.235,37.403,280.367,-11.595
0.322,30.795,6.101,6.240,37.414,280.344,-11.626
0.323,30.841,6.086,6.241,37.429,280.323,-11.664
0.324,30.895,6.067,6.235,37.449,280.302,-11.709
0.325,30.956,6.044,6.222,37.476,280.283,-11.761
0.327,31.026,6.016,6.201,37.509,280.267,-11.821
0.328,31.106,5.983,6.172,37.550,280.254,-11.888
0.329,31.197,5.944,6.133,37.600,280.247,-11.964
0.330,31.300,5.899,6.085,37.658,280.245,-12.048
0.331,31.416,5.848,6.027,37.727,280.250,-12.141
0.333,31.546,5.789,5.958,37.807,280.263,-12.243
0.334,31.691,5.722,5.877,37.898,280.284,-12.354
0.335,31.852,5.648,5.786,38.002,280.315,-12.474
0.336,32.029,5.568,5.686,38.116,280.355,-12.602
0.337,32.219,5.482,5.578,38.241,280.403,-12.737
0.339,32.423,5.393,5.467,38.376,280.462,-12.878
0.340,32.638,5.300,5.352,38.519,280.529,-13.025
0.341,32.865,5.205,5.237,38.671,280.606,-13.175
0.342,33.103,5.109,5.124,38.831,280.692,-13.328
0.343,33.350,5.014,5.015,38.998,280.787,-13.483
0.345,33.605,4.920,4.911,39.171,280.892,-13.639
0.346,33.868,4.830,4.815,39.349,281.006,-13.795
0.347,34.138,4.744,4.727,39.532,281.129,-13.950
0.348,34.414,4.665,4.648,39.720,281.262,-14.103
0.349,34.694,4.595,4.580,39.910,281.403,-14.252
0.351,34.976,4.535,4.524,40.101,281.551,-14.398
0.352,35.258,4.487,4.480,40.292,281.703,-14.539
0.353,35.535,4.453,4.451,40.479,281.857,-14.674
0.354,35.806,4.434,4.436,40.661,282.010,-14.803
0.355,36.066,4.430,4.436,40.836,282.161,-14.925
0.357,36.314,4.439,4.447,41.001,282.306,-15.038
0.358,36.546,4.457,4.467,41.156,282.444,-15.142
0.359,36.758,4.483,4.493,41.297,282.572,-15.236
0.360,36.949,4.512,4.521,41.422,282.689,-15.319
0.361,37.113,4.543,4.550,41.530,282.791,-15.390
0.363,37.250,4.572,4.576,41.619,282.876,-15.449
0.364,37.356,4.597,4.597,41.687,282.944,-15.495
0.365,37.436,4.616,4.610,41.737,282.995,-15.529
0.366,37.492,4.629,4.617,41.772,283.033,-15.553
0.367,37.528,4.637,4.619,41.793,283.059,-15.567
0.369,37.548,4.641,4.618,41.803,283.074,-15.574
0.370,37.556,4.640,4.616,41.805,283.082,-15.574
0.371,37.563,4.636,4.613,41.800,283.084,-15.568
0.372,37.576,4.629,4.613,41.793,283.082,-15.558
0.373,37.592,4.621,4.616,41.784,283.079,-15.546
0.375,37.608,4.611,4.623,41.777,283.076,-15.531
0.376,37.623,4.600,4.636,41.774,283.075,-15.517
0.377,37.637,4.590,4.652,41.777,283.078,-15.503
0.378,37.656,4.580,4.669,41.788,283.088,-15.492
0.379,37.682,4.573,4.688,41.807,283.104,-15.484
0.381,37.717,4.568,4.706,41.832,283.128,-15.480
0.382,37.762,4.566,4.723,41.863,283.160,-15.482
0.383,37.816,4.568,4.737,41.900,283.200,-15.490
0.384,37.882,4.575,4.746,41.940,283.249,-15.506
0.385,37.958,4.587,4.751,41.984,283.307,-15.530
0.387,38.048,4.603,4.751,42.030,283.375,-15.565
0.388,38.150,4.623,4.749,42.077,283.454,-15.610
0.389,38.267,4.644,4.745,42.125,283.543,-15.667
0.390,38.399,4.665,4.739,42.173,283.644,-15.738
0.391,38.547,4.687,4.734,42.220,283.757,-15.822
0.393,38.713,4.707,4.730,42.266,283.882,-15.921
0.394,38.893,4.725,4.727,42.309,284.017,-16.033
0.395,39.085,4.739,4.727,42.350,284.159,-16.155
0.396,39.285,4.749,4.730,42.390,284.306,-16.284
0.397,39.490,4.756,4.734,42.427,284.456,-16.419
0.399,39.696,4.759,4.738,42.463,284.605,-16.556
0.400,39.900,4.759,4.741,42.497,284.753,-16.693
0.401,40.099,4.756,4.743,42.529,284.896,-16.827
0.402,40.289,4.750,4.742,42.559,285.031,-16.957
0.403,40.466,4.740,4.738,42.587,285.157,-17.079
0.405,40.628,4.728,4.730,42.613,285.271,-17.192
0.406,40.771,4.714,4.717,42.637,285.370,-17.291
0.407,40.892,4.698,4.701,42.660,285.452,-17.377
0.408,40.994,4.682,4.685,42.681,285.520,-17.450
0.409,41.079,4.668,4.669,42.703,285.574,-17.512
0.411,41.151,4.656,4.656,42.725,285.617,-17.566
0.412,41.214,4.647,4.646,42.749,285.651,-17.613
0.413,41.272,4.643,4.642,42.775,285.678,-17.657
0.414,41.328,4.645,4.645,42.806,285.699,-17.700
0.415,41.387,4.654,4.657,42.840,285.717,-17.743
0.417,41.450,4.669,4.676,42.881,285.733,-17.789
0.418,41.521,4.689,4.702,42.927,285.750,-17.840
0.419,41.603,4.715,4.733,42.981,285.770,-17.899
0.420,41.698,4.744,4.769,43.043,285.794,-17.967
0.421,41.809,4.777,4.808,43.114,285.824,-18.047
0.423,41.935,4.812,4.849,43.192,285.860,-18.138
0.424,42.072,4.849,4.891,43.277,285.901,-18.238
0.425,42.219,4.887,4.933,43.366,285.946,-18.346
0.426,42.374,4.926,4.975,43.459,285.994,-18.460
0.427,42.534,4.964,5.016,43.553,286.045,-18.579
0.429,42.697,5.003,5.056,43.647,286.096,-18.702
0.430,42.860,5.040,5.095,43.740,286.148,-18.826
0.431,43.022,5.077,5.132,43.829,286.199,-18.951
0.432,43.180,5.111,5.167,43.914,286.248,-19.075
0.433,43.332,5.144,5.201,43.992,286.295,-19.196
0.435,43.475,5.174,5.233,44.063,286.338,-19.313
0.436,43.608,5.201,5.262,44.124,286.377,-19.425
0.437,43.731,5.225,5.289,44.177,286.411,-19.530
0.438,43.844,5.247,5.313,44.221,286.441,-19.630
0.439,43.947,5.266,5.335,44.258,286.467,-19.722
0.441,44.041,5.282,5.354,44.289,286.489,-19.809
0.442,44.127,5.295,5.370,44.314,286.508,-19.888
0.443,44.203,5.307,5.383,44.334,286.522,-19.960
0.444,44.271,5.315,5.393,44.350,286.534,-20.026
0.445,44.331,5.321,5.400,44.364,286.541,-20.083
0.447,44.382,5.326,5.404,44.374,286.546,-20.133
0.448,44.426,5.328,5.406,44.384,286.548,-20.176
0.449,44.461,5.329,5.406,44.393,286.547,-20.210
0.450,44.489,5.329,5.404,44.402,286.543,-20.236
0.451,44.511,5.329,5.401,44.411,286.538,-20.255
0.453,44.528,5.328,5.398,44.421,286.530,-20.267
0.454,44.543,5.328,5.394,44.430,286.522,-20.275
0.455,44.557,5.328,5.391,44.440,286.513,-20.280
0.456,44.570,5.329,5.388,44.449,286.505,-20.282
0.457,44.582,5.331,5.386,44.459,286.497,-20.284
0.459,44.593,5.332,5.386,44.467,286.490,-20.285
0.460,44.603,5.334,5.386,44.476,286.486,-20.289
0.461,44.614,5.335,5.388,44.483,286.484,-20.295
0.462,44.626,5.336,5.392,44.490,286.485,-20.305
0.463,44.644,5.336,5.397,44.497,286.489,-20.321
0.465,44.668,5.335,5.405,44.502,286.498,-20.344
0.466,44.702,5.333,5.414,44.507,286.511,-20.374
0.467,44.745,5.330,5.426,44.515,286.530,-20.412
0.468,44.798,5.327,5.438,44.527,286.553,-20.458
0.469,44.862,5.323,5.451,44.544,286.582,-20.513
0.471,44.940,5.320,5.464,44.570,286.617,-20.578
0.472,45.032,5.317,5.477,44.606,286.657,-20.652
0.473,45.140,5.316,5.489,44.653,286.704,-20.736
0.474,45.265,5.315,5.499,44.714,286.758,-20.832
0.475,45.409,5.317,5.507,44.790,286.819,-20.938
0.477,45.575,5.321,5.514,44.884,286.886,-21.056
0.478,45.763,5.327,5.519,44.997,286.962,-21.187
0.479,45.976,5.338,5.525,45.131,287.045,-21.329
0.480,46.211,5.352,5.532,45.285,287.135,-21.483
0.481,46.463,5.372,5.540,45.454,287.229,-21.645
0.483,46.727,5.396,5.552,45.634,287.327,-21.812
0.484,46.998,5.427,5.567,45.820,287.426,-21.981
0.485,47.270,5.464,5.587,46.010,287.525,-22.149
0.486,47.537,5.508,5.612,46.197,287.621,-22.313
0.487,47.795,5.557,5.641,46.379,287.713,-22.471
0.489,48.037,5.608,5.672,46.552,287.798,-22.618
0.490,48.259,5.660,5.705,46.709,287.876,-22.753
0.491,48.455,5.709,5.739,46.849,287.945,-22.873
0.492,48.619,5.755,5.771,46.966,288.001,-22.973
0.493,48.747,5.794,5.800,47.056,288.045,-23.053
0.495,48.838,5.825,5.826,47.120,288.076,-23.110
0.496,48.899,5.846,5.847,47.161,288.098,-23.149
0.497,48.935,5.857,5.863,47.183,288.114,-23.172
0.498,48.954,5.860,5.875,47.190,288.129,-23.181
0.499,48.971,5.858,5.885,47.185,288.146,-23.179
0.501,48.998,5.852,5.894,47.173,288.168,-23.169
0.502,49.035,5.845,5.903,47.157,288.198,-23.154
0.503,49.084,5.839,5.913,47.141,288.240,-23.135
0.504,49.146,5.836,5.925,47.130,288.299,-23.117
