"T","Distance","Radius","FreeRadius","X","Y","Z"
0.000,0.000,2.219,2.219,183.103,180.643,153.685
0.001,0.281,2.376,2.376,182.914,180.847,153.726
0.003,0.561,2.531,2.531,182.727,181.051,153.766
0.004,0.836,2.681,2.681,182.544,181.254,153.804
0.005,1.105,2.822,2.822,182.368,181.454,153.836
0.007,1.367,2.954,2.954,182.198,181.652,153.864
0.008,1.619,3.072,3.072,182.039,181.846,153.883
0.009,1.860,3.174,3.174,181.892,182.036,153.894
0.010,2.088,3.258,3.258,181.758,182.221,153.895
0.012,2.304,3.323,3.323,181.640,182.401,153.884
0.013,2.506,3.373,3.373,181.540,182.575,153.860
0.014,2.695,3.410,3.410,181.459,182.742,153.822
0.016,2.873,3.441,3.441,181.400,182.901,153.767
0.017,3.044,3.467,3.467,181.361,183.053,153.699
0.018,3.211,3.493,3.493,181.340,183.197,153.618
0.020,3.373,3.523,3.523,181.334,183.332,153.529
0.021,3.533,3.560,3.560,181.341,183.460,153.433
0.022,3.688,3.606,3.606,181.358,183.579,153.334
0.023,3.839,3.657,3.657,181.382,183.690,153.235
0.025,3.984,3.712,3.712,181.412,183.792,153.137
0.026,4.119,3.767,3.767,181.445,183.886,153.045
0.027,4.244,3.820,3.820,181.478,183.970,152.960
0.029,4.354,3.869,3.869,181.508,184.046,152.885
0.030,4.448,3.910,3.910,181.533,184.113,152.824
0.031,4.526,3.942,3.942,181.552,184.171,152.777
0.033,4.588,3.966,3.966,181.566,184.221,152.742
0.034,4.638,3.981,3.981,181.576,184.263,152.717
0.035,4.677,3.991,3.991,181.581,184.299,152.702
0.037,4.708,3.997,3.997,181.583,184.329,152.695
0.038,4.732,3.999,3.999,181.582,184.353,152.693
0.039,4.752,4.000,4.000,181.579,184.372,152.696
0.040,4.768,4.002,4.002,181.575,184.388,152.701
0.042,4.783,4.005,4.005,181.570,184.400,152.708
0.043,4.795,4.009,4.009,181.566,184.409,152.713
0.044,4.804,4.015,4.015,181.562,184.416,152.717
0.046,4.811,4.021,4.021,181.560,184.423,152.718
0.047,4.818,4.028,4.028,181.559,184.429,152.715
0.048,4.828,4.035,4.035,181.559,184.437,152.709
0.050,4.842,4.042,4.042,181.562,184.448,152.700
0.051,4.862,4.049,4.049,181.566,184.463,152.688
0.052,4.888,4.055,4.055,181.573,184.483,152.673
0.053,4.922,4.062,4.062,181.582,184.511,152.656
0.055,4.964,4.072,4.072,181.593,184.546,152.636
0.056,5.016,4.084,4.084,181.607,184.591,152.614
0.057,5.079,4.102,4.102,181.624,184.647,152.590
0.059,5.155,4.125,4.125,181.644,184.715,152.564
0.060,5.243,4.155,4.155,181.666,184.797,152.536
0.061,5.344,4.193,4.193,181.692,184.890,152.507
0.063,5.454,4.239,4.239,181.719,184.992,152.476
0.064,5.571,4.290,4.290,181.747,185.101,152.446
0.065,5.692,4.344,4.344,181.777,185.214,152.415
0.066,5.816,4.397,4.397,181.807,185.330,152.385
0.068,5.938,4.448,4.448,181.837,185.446,152.356
0.069,6.058,4.494,4.494,181.866,185.559,152.328
0.070,6.173,4.533,4.533,181.893,185.667,152.302
0.072,6.279,4.562,4.562,181.919,185.768,152.279
0.073,6.376,4.581,4.581,181.942,185.859,152.259
0.074,6.459,4.593,4.593,181.963,185.938,152.241
0.076,6.529,4.599,4.599,181.980,186.004,152.228
0.077,6.585,4.601,4.601,181.994,186.057,152.218
0.078,6.626,4.600,4.600,182.004,186.097,152.212
0.080,6.654,4.598,4.598,182.012,186.124,152.209
0.081,6.669,4.597,4.597,182.015,186.138,152.210
0.082,6.674,4.599,4.599,182.015,186.139,152.214
0.083,6.689,4.602,4.602,182.012,186.126,152.223
0.085,6.718,4.607,4.607,182.005,186.101,152.235
0.086,6.762,4.613,4.613,181.994,186.062,152.251
0.087,6.819,4.620,4.620,181.980,186.010,152.271
0.089,6.891,4.627,4.627,181.962,185.944,152.295
0.090,6.975,4.634,4.634,181.940,185.868,152.322
0.091,7.062,4.640,4.640,181.917,185.788,152.349
0.093,7.146,4.645,4.645,181.894,185.712,152.376
0.094,7.219,4.648,4.648,181.872,185.647,152.400
0.095,7.273,4.648,4.648,181.854,185.600,152.417
0.096,7.301,4.644,4.644,181.840,185.578,152.428
0.098,7.313,4.635,4.635,181.833,185.588,152.428
0.099,7.365,4.620,4.620,181.834,185.638,152.417
0.100,7.466,4.599,4.599,181.845,185.736,152.391
0.102,7.625,4.569,4.569,181.867,185.888,152.349
0.103,7.850,4.533,4.533,181.901,186.101,152.289
0.104,8.143,4.493,4.493,181.950,186.380,152.209
0.106,8.497,4.454,4.454,182.009,186.715,152.113
0.107,8.899,4.419,4.419,182.077,187.096,152.003
0.108,9.337,4.391,4.391,182.149,187.511,151.885
0.110,9.798,4.373,4.373,182.222,187.948,151.760
0.111,10.270,4.369,4.369,182.293,188.398,151.634
0.112,10.742,4.382,4.382,182.359,188.848,151.509
0.113,11.200,4.412,4.412,182.416,189.287,151.390
0.115,11.633,4.455,4.455,182.461,189.704,151.280
0.116,12.030,4.509,4.509,182.492,190.087,151.183
0.117,12.378,4.572,4.572,182.504,190.425,151.103
0.119,12.669,4.641,4.641,182.495,190.709,151.042
0.120,12.904,4.713,4.713,182.465,190.939,151.000
0.121,13.092,4.786,4.786,182.420,191.120,150.975
0.123,13.243,4.858,4.858,182.360,191.258,150.964
0.124,13.365,4.928,4.928,182.291,191.359,150.965
0.125,13.469,4.994,4.994,182.214,191.428,150.975
0.126,13.562,5.056,5.056,182.134,191.472,150.992
0.128,13.649,5.113,5.113,182.054,191.496,151.013
0.129,13.730,5.164,5.164,181.976,191.505,151.035
0.130,13.806,5.208,5.208,181.904,191.506,151.057
0.132,13.871,5.244,5.244,181.841,191.504,151.076
0.133,13.923,5.272,5.272,181.790,191.504,151.089
0.134,13.961,5.292,5.292,181.753,191.510,151.095
0.136,13.988,5.305,5.305,181.728,191.518,151.097
0.137,14.006,5.312,5.312,181.714,191.529,151.094
0.138,14.020,5.312,5.312,181.708,191.540,151.089
0.140,14.032,5.306,5.306,181.711,191.551,151.083
0.141,14.046,5.296,5.296,181.720,191.558,151.076
0.142,14.061,5.281,5.281,181.734,191.562,151.070
0.143,14.079,5.263,5.263,181.752,191.560,151.067
0.145,14.101,5.243,5.243,181.772,191.550,151.068
0.146,14.129,5.222,5.222,181.792,191.532,151.073
0.147,14.165,5.203,5.203,181.812,191.504,151.085
0.149,14.211,5.187,5.187,181.831,191.466,151.102
0.150,14.262,5.175,5.175,181.846,191.423,151.124
0.151,14.312,5.169,5.169,181.859,191.380,151.146
0.153,14.356,5.170,5.170,181.867,191.341,151.166
0.154,14.388,5.177,5.177,181.870,191.313,151.180
0.155,14.403,5.191,5.191,181.867,191.300,151.187
0.156,14.415,5.209,5.209,181.858,191.307,151.183
0.158,14.456,5.230,5.230,181.841,191.340,151.166
0.159,14.532,5.254,5.254,181.817,191.403,151.131
0.160,14.650,5.278,5.278,181.783,191.502,151.077
0.162,14.815,5.303,5.303,181.740,191.642,151.000
0.163,15.031,5.326,5.326,181.687,191.826,150.899
0.164,15.293,5.350,5.350,181.625,192.048,150.777
0.166,15.589,5.375,5.375,181.556,192.300,150.638
0.167,15.911,5.403,5.403,181.483,192.574,150.486
0.168,16.248,5.434,5.434,181.407,192.862,150.327
0.169,16.592,5.471,5.471,181.331,193.155,150.164
0.171,16.932,5.513,5.513,181.256,193.445,150.003
0.172,17.258,5.563,5.563,181.185,193.723,149.848
0.173,17.561,5.619,5.619,181.119,193.981,149.703
0.175,17.831,5.680,5.680,181.061,194.211,149.573
0.176,18.059,5.742,5.742,181.013,194.404,149.463
0.177,18.235,5.801,5.801,180.976,194.553,149.376
0.179,18.360,5.856,5.856,180.950,194.658,149.314
0.180,18.440,5.903,5.903,180.934,194.724,149.272
0.181,18.480,5.938,5.938,180.927,194.757,149.250
0.183,18.488,5.960,5.960,180.926,194.762,149.244
0.184,18.507,5.967,5.967,180.930,194.745,149.251
0.185,18.546,5.964,5.963,180.939,194.712,149.269
0.186,18.598,5.952,5.952,180.949,194.668,149.295
0.188,18.658,5.934,5.934,180.960,194.619,149.327
0.189,18.719,5.915,5.915,180.970,194.570,149.362
0.190,18.775,5.896,5.896,180.978,194.527,149.397
0.192,18.821,5.881,5.881,180.982,194.495,149.430
0.193,18.855,5.871,5.872,180.981,194.477,149.459
0.194,18.882,5.868,5.869,180.976,194.472,149.485
0.196,18.906,5.871,5.871,180.968,194.478,149.506
0.197,18.932,5.877,5.877,180.955,194.493,149.524
0.198,18.964,5.886,5.886,180.940,194.516,149.539
0.199,19.000,5.896,5.897,180.922,194.546,149.550
0.201,19.040,5.908,5.908,180.902,194.579,149.559
0.202,19.083,5.919,5.919,180.880,194.616,149.564
0.203,19.128,5.929,5.929,180.857,194.654,149.566
0.205,19.172,5.938,5.938,180.834,194.692,149.565
0.206,19.216,5.946,5.946,180.809,194.728,149.562
0.207,19.257,5.953,5.953,180.785,194.761,149.556
0.209,19.296,5.960,5.959,180.761,194.791,149.548
0.210,19.334,5.966,5.966,180.737,194.819,149.539
0.211,19.371,5.972,5.972,180.714,194.845,149.528
0.213,19.407,5.978,5.978,180.690,194.871,149.517
0.214,19.443,5.984,5.985,180.667,194.896,149.506
0.215,19.479,5.991,5.992,180.645,194.922,149.495
0.216,19.515,5.998,6.000,180.624,194.949,149.485
0.218,19.551,6.007,6.009,180.603,194.977,149.476
0.219,19.589,6.016,6.019,180.583,195.008,149.469
0.220,19.628,6.028,6.030,180.564,195.042,149.464
0.222,19.670,6.041,6.042,180.545,195.079,149.461
0.223,19.714,6.056,6.055,180.528,195.120,149.461
0.224,19.759,6.073,6.069,180.511,195.162,149.462
0.226,19.806,6.091,6.084,180.494,195.205,149.462
0.227,19.852,6.108,6.098,180.477,195.248,149.462
0.228,19.898,6.124,6.109,180.460,195.290,149.460
0.229,19.942,6.137,6.119,180.441,195.330,149.455
0.231,19.984,6.147,6.125,180.421,195.367,149.446
0.232,20.025,6.152,6.126,180.400,195.399,149.432
0.233,20.066,6.152,6.122,180.377,195.426,149.413
0.235,20.108,6.147,6.114,180.352,195.447,149.386
0.236,20.154,6.138,6.104,180.324,195.461,149.352
0.237,20.207,6.127,6.093,180.294,195.469,149.310
0.239,20.266,6.113,6.083,180.264,195.474,149.259
0.240,20.332,6.100,6.076,180.233,195.480,149.201
0.241,20.404,6.087,6.073,180.204,195.489,149.136
0.243,20.483,6.075,6.076,180.176,195.506,149.063
0.244,20.571,6.066,6.086,180.152,195.532,148.984
0.245,20.668,6.057,6.100,180.133,195.572,148.897
0.246,20.777,6.047,6.115,180.119,195.628,148.804
0.248,20.903,6.034,6.127,180.111,195.704,148.705
0.249,21.048,6.017,6.134,180.112,195.804,148.600
0.250,21.216,5.992,6.131,180.121,195.929,148.488
0.252,21.408,5.959,6.116,180.139,196.081,148.372
0.253,21.620,5.915,6.085,180.164,196.255,148.252
0.254,21.847,5.860,6.038,180.196,196.445,148.132
0.256,22.083,5.799,5.979,180.232,196.645,148.013
0.257,22.321,5.733,5.912,180.270,196.849,147.897
0.258,22.555,5.666,5.841,180.310,197.052,147.786
0.259,22.780,5.602,5.772,180.349,197.248,147.683
0.261,22.989,5.543,5.709,180.386,197.432,147.590
0.262,23.177,5.494,5.655,180.419,197.597,147.508
0.263,23.336,5.457,5.615,180.447,197.738,147.441
0.265,23.460,5.433,5.591,180.468,197.849,147.389
0.266,23.546,5.419,5.578,180.480,197.927,147.354
0.267,23.597,5.414,5.575,180.486,197.974,147.335
0.269,23.620,5.415,5.579,180.486,197.995,147.329
0.270,23.625,5.420,5.586,180.482,197.997,147.332
0.271,23.643,5.426,5.595,180.475,197.983,147.342
0.272,23.672,5.433,5.603,180.467,197.958,147.355
0.274,23.705,5.438,5.607,180.460,197.929,147.370
0.275,23.737,5.440,5.607,180.456,197.900,147.382
0.276,23.762,5.438,5.603,180.455,197.877,147.390
0.278,23.776,5.434,5.595,180.459,197.863,147.389
0.279,23.792,5.427,5.583,180.471,197.866,147.379
0.280,23.830,5.416,5.569,180.490,197.888,147.354
0.282,23.893,5.402,5.552,180.518,197.931,147.317
0.283,23.978,5.384,5.532,180.552,197.992,147.268
0.284,24.082,5.363,5.510,180.591,198.068,147.210
0.286,24.200,5.339,5.486,180.634,198.156,147.143
0.287,24.331,5.314,5.462,180.679,198.255,147.071
0.288,24.469,5.288,5.437,180.725,198.360,146.994
0.289,24.612,5.262,5.412,180.770,198.470,146.914
0.291,24.756,5.238,5.388,180.814,198.581,146.834
0.292,24.898,5.215,5.364,180.854,198.692,146.754
0.293,25.035,5.196,5.343,180.889,198.799,146.677
0.295,25.162,5.180,5.324,180.918,198.900,146.605
0.296,25.280,5.168,5.307,180.941,198.994,146.538
0.297,25.387,5.157,5.292,180.957,199.080,146.477
0.299,25.484,5.148,5.279,180.968,199.159,146.421
0.300,25.572,5.141,5.268,180.974,199.230,146.369
0.301,25.652,5.133,5.260,180.975,199.295,146.323
0.302,25.723,5.125,5.254,180.973,199.352,146.282
0.304,25.786,5.116,5.250,180.968,199.404,146.245
0.305,25.841,5.106,5.248,180.960,199.448,146.213
0.306,25.889,5.096,5.248,180.950,199.486,146.186
0.308,25.930,5.086,5.249,180.940,199.519,146.162
0.309,25.964,5.076,5.252,180.929,199.545,146.144
0.310,25.992,5.067,5.255,180.917,199.565,146.129
0.312,26.014,5.060,5.259,180.906,199.580,146.117
0.313,26.031,5.054,5.264,180.895,199.591,146.109
0.314,26.045,5.052,5.269,180.885,199.599,146.104
0.316,26.057,5.051,5.274,180.875,199.603,146.101
0.317,26.067,5.053,5.278,180.865,199.605,146.100
0.318,26.075,5.055,5.282,180.857,199.606,146.100
0.319,26.083,5.059,5.285,180.849,199.605,146.101
0.321,26.091,5.063,5.288,180.842,199.605,146.103
0.322,26.097,5.066,5.289,180.836,199.605,146.105
0.323,26.102,5.069,5.289,180.831,199.606,146.107
0.325,26.107,5.071,5.287,180.827,199.609,146.108
0.326,26.112,5.072,5.285,180.825,199.614,146.108
0.327,26.118,5.071,5.281,180.823,199.620,146.108
0.329,26.124,5.070,5.278,180.822,199.626,146.107
0.330,26.130,5.067,5.274,180.822,199.631,146.106
0.331,26.135,5.063,5.271,180.821,199.636,146.105
0.332,26.139,5.059,5.269,180.821,199.640,146.104
0.334,26.141,5.053,5.268,180.820,199.641,146.103
0.335,26.143,5.047,5.268,180.819,199.639,146.101
0.336,26.148,5.040,5.270,180.817,199.635,146.100
0.338,26.158,5.034,5.272,180.813,199.626,146.100
0.339,26.171,5.029,5.275,180.809,199.613,146.099
0.340,26.189,5.025,5.277,180.803,199.597,146.099
0.342,26.207,5.024,5.279,180.797,199.579,146.099
0.343,26.225,5.025,5.280,180.789,199.563,146.099
0.344,26.239,5.029,5.280,180.782,199.551,146.099
0.346,26.249,5.035,5.277,180.774,199.544,146.098
0.347,26.257,5.041,5.272,180.767,199.546,146.096
0.348,26.272,5.045,5.262,180.760,199.559,146.092
0.349,26.299,5.044,5.246,180.755,199.585,146.087
0.351,26.341,5.037,5.225,180.750,199.626,146.081
0.352,26.401,5.022,5.195,180.747,199.686,146.072
0.353,26.481,4.995,5.157,180.746,199.765,146.062
0.355,26.582,4.956,5.109,180.746,199.865,146.048
0.356,26.704,4.905,5.052,180.748,199.986,146.033
0.357,26.843,4.844,4.989,180.751,200.124,146.016
0.359,26.999,4.775,4.921,180.753,200.279,145.997
0.360,27.171,4.700,4.849,180.756,200.449,145.976
0.361,27.355,4.621,4.777,180.757,200.633,145.954
0.362,27.552,4.539,4.704,180.757,200.828,145.931
0.364,27.758,4.458,4.635,180.754,201.033,145.906
0.365,27.974,4.378,4.569,180.749,201.246,145.881
0.366,28.196,4.301,4.507,180.741,201.467,145.855
0.368,28.424,4.229,4.450,180.729,201.693,145.828
0.369,28.656,4.164,4.399,180.712,201.923,145.801
0.370,28.890,4.105,4.353,180.691,202.155,145.775
0.372,29.126,4.056,4.314,180.663,202.387,145.749
0.373,29.361,4.018,4.281,180.627,202.618,145.723
0.374,29.595,3.992,4.255,180.584,202.847,145.700
0.375,29.827,3.978,4.236,180.532,203.072,145.678
0.377,30.056,3.975,4.224,180.470,203.291,145.659
0.378,30.280,3.982,4.219,180.396,203.503,145.643
0.379,30.501,3.998,4.222,180.311,203.706,145.630
0.381,30.717,4.019,4.232,180.214,203.899,145.621
0.382,30.930,4.046,4.248,180.102,204.080,145.617
0.383,31.139,4.077,4.272,179.977,204.248,145.617
0.385,31.346,4.110,4.303,179.839,204.402,145.620
0.386,31.551,4.144,4.339,179.692,204.545,145.627
0.387,31.752,4.178,4.378,179.540,204.677,145.636
0.389,31.949,4.212,4.417,179.387,204.799,145.646
0.390,32.138,4.245,4.454,179.235,204.912,145.655
0.391,32.319,4.277,4.486,179.089,205.018,145.662
0.392,32.489,4.306,4.511,178.952,205.118,145.667
0.394,32.645,4.332,4.527,178.827,205.213,145.669
0.395,32.787,4.354,4.530,178.719,205.303,145.665
0.396,32.912,4.373,4.524,178.630,205.391,145.656
0.398,33.021,4.390,4.511,178.564,205.477,145.639
0.399,33.119,4.405,4.495,178.521,205.561,145.616
0.400,33.209,4.421,4.480,178.499,205.644,145.587
0.402,33.298,4.437,4.469,178.494,205.725,145.553
0.403,33.386,4.454,4.466,178.504,205.805,145.516
0.404,33.476,4.474,4.473,178.525,205.883,145.477
0.405,33.567,4.497,4.493,178.555,205.960,145.438
0.407,33.658,4.522,4.524,178.589,206.034,145.399
0.408,33.747,4.548,4.563,178.626,206.107,145.362
0.409,33.833,4.575,4.606,178.662,206.177,145.328
0.411,33.914,4.600,4.650,178.695,206.245,145.299
0.412,33.988,4.623,4.693,178.720,206.311,145.276
0.413,34.055,4.644,4.730,178.736,206.374,145.258
0.415,34.117,4.660,4.760,178.743,206.434,145.247
0.416,34.173,4.672,4.780,178.744,206.490,145.242
0.417,34.226,4.680,4.792,178.738,206.543,145.241
0.419,34.276,4.685,4.798,178.726,206.590,145.245
0.420,34.322,4.688,4.798,178.710,206.633,145.252
0.421,34.365,4.690,4.793,178.691,206.670,145.263
0.422,34.405,4.691,4.786,178.669,206.702,145.276
0.424,34.442,4.692,4.777,178.646,206.726,145.290
0.425,34.476,4.694,4.768,178.622,206.744,145.307
0.426,34.507,4.697,4.759,178.598,206.754,145.323
0.428,34.534,4.699,4.749,178.576,206.757,145.340
0.429,34.561,4.699,4.737,178.555,206.756,145.355
0.430,34.586,4.697,4.724,178.533,206.757,145.368
0.432,34.612,4.691,4.708,178.509,206.764,145.376
0.433,34.645,4.681,4.688,178.483,206.784,145.378
0.434,34.693,4.664,4.665,178.453,206.821,145.372
0.435,34.763,4.642,4.638,178.418,206.880,145.357
0.437,34.863,4.616,4.609,178.378,206.967,145.332
0.438,34.997,4.591,4.583,178.330,207.087,145.295
0.439,35.172,4.571,4.564,178.274,207.245,145.243
0.441,35.393,4.561,4.554,178.210,207.445,145.177
0.442,35.665,4.563,4.559,178.135,207.694,145.093
0.443,35.985,4.584,4.582,178.051,207.986,144.995
0.445,36.342,4.626,4.626,177.960,208.313,144.884
0.446,36.725,4.691,4.694,177.865,208.665,144.766
0.447,37.124,4.775,4.779,177.767,209.031,144.642
0.449,37.528,4.871,4.876,177.670,209.403,144.517
0.450,37.927,4.973,4.978,177.574,209.771,144.394
0.451,38.310,5.074,5.078,177.484,210.124,144.277
0.452,38.667,5.167,5.170,177.400,210.453,144.168
0.454,38.986,5.246,5.248,177.326,210.749,144.073
0.455,39.258,5.305,5.304,177.264,211.001,143.993
0.456,39.472,5.342,5.337,177.215,211.200,143.932
0.458,39.625,5.359,5.351,177.182,211.344,143.892
0.459,39.724,5.362,5.351,177.162,211.438,143.868
0.460,39.780,5.354,5.341,177.157,211.493,143.856
0.462,39.804,5.340,5.327,177.163,211.515,143.852
0.463,39.822,5.322,5.312,177.181,211.514,143.852
0.464,39.855,5.306,5.302,177.210,211.497,143.852
0.465,39.900,5.294,5.301,177.248,211.473,143.848
0.467,39.954,5.290,5.310,177.295,211.451,143.835
0.468,40.016,5.291,5.328,177.350,211.438,143.810
0.469,40.090,5.299,5.351,177.412,211.442,143.769
0.471,40.187,5.312,5.380,177.480,211.472,143.707
0.472,40.315,5.330,5.412,177.552,211.534,143.623
0.473,40.472,5.352,5.446,177.629,211.624,143.518
0.475,40.654,5.380,5.479,177.707,211.737,143.398
0.476,40.855,5.411,5.510,177.785,211.866,143.266
0.477,41.066,5.444,5.539,177.863,212.006,143.128
0.478,41.283,5.479,5.565,177.937,212.152,142.987
0.480,41.496,5.512,5.587,178.008,212.298,142.848
0.481,41.701,5.543,5.607,178.072,212.439,142.715
0.482,41.889,5.570,5.622,178.129,212.570,142.592
0.484,42.053,5.592,5.633,178.177,212.683,142.484
0.485,42.186,5.605,5.640,178.214,212.775,142.394
0.486,42.283,5.611,5.642,178.240,212.840,142.328
0.488,42.345,5.609,5.640,178.254,212.880,142.283
0.489,42.378,5.602,5.635,178.260,212.900,142.256
0.490,42.390,5.591,5.627,178.260,212.905,142.245
0.492,42.398,5.579,5.618,178.255,212.898,142.247
0.493,42.415,5.566,5.609,178.248,212.886,142.257
0.494,42.438,5.554,5.599,178.241,212.873,142.273
0.495,42.459,5.546,5.590,178.236,212.863,142.292
0.497,42.478,5.541,5.582,178.235,212.862,142.310
0.498,42.497,5.541,5.577,178.241,212.874,142.324
0.499,42.531,5.544,5.573,178.255,212.904,142.332
0.501,42.589,5.550,5.572,178.279,212.956,142.330
0.502,42.673,5.560,5.574,178.315,213.031,142.317
0.503,42.781,5.572,5.580,178.361,213.126,142.294
0.505,42.908,5.587,5.589,178.414,213.237,142.263
0.506,43.051,5.604,5.602,178.475,213.360,142.223
0.507,43.204,5.624,5.619,178.542,213.491,142.178
0.508,43.366,5.644,5.638,178.612,213.627,142.128
0.510,43.530,5.664,5.659,178.686,213.764,142.073
0.511,43.694,5.683,5.681,178.761,213.898,142.016
0.512,43.854,5.700,5.701,178.836,214.026,141.958
0.514,44.005,5.715,5.720,178.910,214.143,141.899
0.515,44.144,5.726,5.737,178.981,214.247,141.841
0.516,44.268,5.732,5.750,179.049,214.336,141.784
0.518,44.381,5.735,5.760,179.115,214.410,141.731
0.519,44.483,5.733,5.769,179.178,214.473,141.682
0.520,44.577,5.728,5.778,179.240,214.528,141.637
0.522,44.664,5.720,5.789,179.302,214.576,141.599
0.523,44.746,5.709,5.802,179.364,214.620,141.567
0.524,44.826,5.696,5.820,179.427,214.662,141.543
0.525,44.905,5.681,5.843,179.491,214.705,141.529
0.527,44.987,5.664,5.873,179.559,214.752,141.524
0.528,45.075,5.648,5.907,179.629,214.804,141.530
0.529,45.173,5.634,5.943,179.704,214.865,141.548
0.531,45.284,5.624,5.979,179.784,214.935,141.579
