"T","Distance","Radius","FreeRadius","X","Y","Z"
0.000,0.000,3.285,3.285,173.204,192.666,196.658
0.001,0.059,3.253,3.253,173.146,192.666,196.648
0.003,0.115,3.222,3.222,173.091,192.666,196.641
0.004,0.164,3.193,3.193,173.042,192.666,196.636
0.006,0.202,3.170,3.170,173.004,192.667,196.637
0.007,0.229,3.151,3.151,172.978,192.669,196.644
0.009,0.247,3.140,3.140,172.970,192.673,196.660
0.010,0.275,3.137,3.137,172.981,192.678,196.686
0.012,0.327,3.144,3.144,173.015,192.685,196.723
0.013,0.406,3.162,3.162,173.076,192.693,196.774
0.015,0.519,3.190,3.190,173.166,192.705,196.840
0.016,0.668,3.229,3.229,173.290,192.718,196.923
0.018,0.855,3.279,3.279,173.447,192.734,197.023
0.019,1.074,3.341,3.341,173.633,192.753,197.137
0.021,1.317,3.416,3.416,173.841,192.772,197.261
0.022,1.577,3.502,3.502,174.064,192.793,197.393
0.023,1.848,3.596,3.596,174.297,192.814,197.529
0.025,2.121,3.696,3.696,174.533,192.834,197.664
0.026,2.389,3.796,3.796,174.765,192.853,197.797
0.028,2.646,3.894,3.894,174.988,192.870,197.923
0.029,2.883,3.986,3.986,175.195,192.885,198.039
0.031,3.095,4.068,4.068,175.380,192.897,198.142
0.032,3.273,4.140,4.140,175.536,192.906,198.228
0.034,3.415,4.200,4.200,175.661,192.910,198.296
0.035,3.525,4.250,4.250,175.758,192.912,198.347
0.037,3.607,4.291,4.291,175.830,192.912,198.384
0.038,3.664,4.323,4.323,175.882,192.911,198.409
0.040,3.703,4.347,4.347,175.918,192.909,198.423
0.041,3.725,4.364,4.364,175.939,192.908,198.430
0.043,3.737,4.375,4.375,175.951,192.908,198.430
0.044,3.744,4.381,4.381,175.957,192.910,198.427
0.045,3.753,4.384,4.384,175.960,192.915,198.421
0.047,3.764,4.385,4.385,175.965,192.924,198.416
0.048,3.781,4.385,4.385,175.974,192.937,198.412
0.050,3.805,4.386,4.386,175.989,192.956,198.412
0.051,3.835,4.389,4.389,176.010,192.978,198.415
0.053,3.871,4.394,4.394,176.034,193.003,198.421
0.054,3.911,4.399,4.399,176.062,193.031,198.430
0.056,3.955,4.405,4.405,176.093,193.060,198.443
0.057,4.002,4.409,4.409,176.125,193.090,198.459
0.059,4.051,4.409,4.409,176.158,193.120,198.479
0.060,4.101,4.406,4.406,176.191,193.150,198.502
0.062,4.151,4.398,4.398,176.223,193.178,198.528
0.063,4.201,4.385,4.385,176.253,193.204,198.559
0.065,4.250,4.369,4.369,176.280,193.227,198.592
0.066,4.300,4.353,4.353,176.305,193.248,198.630
0.067,4.351,4.338,4.338,176.329,193.269,198.670
0.069,4.406,4.327,4.327,176.352,193.292,198.714
0.070,4.465,4.320,4.320,176.376,193.319,198.761
0.072,4.529,4.321,4.321,176.402,193.351,198.810
0.073,4.600,4.328,4.328,176.431,193.390,198.862
0.075,4.679,4.340,4.340,176.463,193.439,198.915
0.076,4.769,4.355,4.355,176.500,193.498,198.971
0.078,4.871,4.371,4.371,176.542,193.570,199.029
0.079,4.987,4.386,4.386,176.591,193.658,199.088
0.081,5.119,4.399,4.399,176.648,193.761,199.149
0.082,5.264,4.409,4.409,176.710,193.877,199.211
0.084,5.418,4.415,4.415,176.776,194.001,199.273
0.085,5.576,4.417,4.417,176.844,194.129,199.336
0.087,5.733,4.417,4.417,176.911,194.256,199.398
0.088,5.884,4.414,4.414,176.976,194.378,199.460
0.089,6.025,4.408,4.408,177.036,194.490,199.521
0.091,6.152,4.401,4.401,177.089,194.588,199.580
0.092,6.260,4.392,4.392,177.133,194.668,199.638
0.094,6.345,4.383,4.383,177.167,194.724,199.694
0.095,6.409,4.375,4.375,177.187,194.752,199.747
0.097,6.460,4.369,4.369,177.193,194.750,199.798
0.098,6.512,4.368,4.368,177.188,194.725,199.843
0.100,6.569,4.372,4.372,177.176,194.685,199.883
0.101,6.628,4.383,4.383,177.161,194.639,199.915
0.103,6.679,4.401,4.401,177.147,194.594,199.938
0.104,6.716,4.422,4.422,177.137,194.561,199.949
0.106,6.730,4.443,4.443,177.137,194.546,199.949
0.107,6.754,4.459,4.459,177.150,194.559,199.934
0.109,6.818,4.467,4.467,177.179,194.608,199.904
0.110,6.935,4.462,4.462,177.229,194.702,199.857
0.111,7.112,4.440,4.440,177.304,194.848,199.790
0.113,7.354,4.400,4.400,177.406,195.050,199.706
0.114,7.649,4.345,4.345,177.533,195.299,199.607
0.116,7.988,4.279,4.279,177.681,195.583,199.500
0.117,8.357,4.205,4.205,177.849,195.893,199.389
0.119,8.746,4.128,4.128,178.033,196.218,199.279
0.120,9.143,4.052,4.052,178.231,196.546,199.176
0.122,9.539,3.979,3.979,178.441,196.868,199.084
0.123,9.921,3.915,3.915,178.659,197.173,199.008
0.125,10.281,3.861,3.861,178.883,197.451,198.954
0.126,10.612,3.820,3.820,179.110,197.689,198.927
0.128,10.909,3.795,3.795,179.338,197.880,198.931
0.129,11.177,3.790,3.790,179.564,198.017,198.967
0.130,11.426,3.805,3.805,179.788,198.109,199.030
0.132,11.667,3.845,3.845,180.008,198.160,199.115
0.133,11.905,3.907,3.907,180.222,198.176,199.216
0.135,12.142,3.985,3.985,180.430,198.166,199.329
0.136,12.377,4.069,4.069,180.630,198.133,199.448
0.138,12.608,4.154,4.154,180.822,198.086,199.567
0.139,12.829,4.231,4.231,181.003,198.029,199.681
0.141,13.037,4.292,4.292,181.173,197.970,199.786
0.142,13.226,4.332,4.332,181.330,197.915,199.875
0.144,13.392,4.349,4.349,181.474,197.869,199.943
0.145,13.535,4.350,4.350,181.605,197.835,199.990
0.147,13.661,4.341,4.341,181.726,197.813,200.019
0.148,13.776,4.328,4.328,181.839,197.801,200.034
0.150,13.886,4.317,4.317,181.949,197.798,200.036
0.151,13.993,4.315,4.315,182.056,197.804,200.031
0.152,14.103,4.328,4.328,182.165,197.817,200.019
0.154,14.218,4.356,4.356,182.277,197.838,200.006
0.155,14.341,4.396,4.396,182.396,197.864,199.994
0.157,14.473,4.446,4.446,182.524,197.895,199.986
0.158,14.618,4.503,4.503,182.664,197.930,199.985
0.160,14.777,4.564,4.564,182.819,197.969,199.994
0.161,14.952,4.626,4.626,182.988,198.010,200.014
0.163,15.140,4.688,4.688,183.168,198.054,200.041
0.164,15.338,4.748,4.748,183.358,198.100,200.076
0.166,15.544,4.810,4.810,183.555,198.146,200.115
0.167,15.756,4.874,4.874,183.757,198.194,200.156
0.169,15.971,4.942,4.942,183.962,198.242,200.199
0.170,16.186,5.015,5.015,184.167,198.291,200.242
0.172,16.399,5.095,5.095,184.371,198.339,200.282
0.173,16.607,5.183,5.183,184.570,198.386,200.317
0.174,16.808,5.277,5.277,184.764,198.432,200.347
0.176,17.000,5.373,5.373,184.949,198.476,200.370
0.177,17.181,5.469,5.469,185.125,198.518,200.385
0.179,17.351,5.562,5.562,185.290,198.557,200.393
0.180,17.508,5.648,5.648,185.442,198.593,200.395
0.182,17.651,5.725,5.725,185.582,198.625,200.392
0.183,17.779,5.789,5.789,185.707,198.653,200.384
0.185,17.892,5.841,5.841,185.816,198.675,200.371
0.186,17.988,5.880,5.880,185.909,198.693,200.354
0.188,18.066,5.908,5.908,185.984,198.704,200.334
0.189,18.126,5.923,5.923,186.039,198.708,200.312
0.191,18.169,5.927,5.927,186.074,198.706,200.287
0.192,18.200,5.919,5.919,186.089,198.696,200.261
0.194,18.230,5.900,5.900,186.089,198.681,200.236
0.195,18.260,5.876,5.876,186.081,198.663,200.213
0.196,18.290,5.849,5.849,186.069,198.643,200.194
0.198,18.314,5.825,5.825,186.061,198.624,200.182
0.199,18.331,5.809,5.809,186.062,198.607,200.179
0.201,18.353,5.803,5.803,186.079,198.595,200.185
0.202,18.396,5.814,5.814,186.117,198.589,200.205
0.204,18.469,5.843,5.843,186.182,198.591,200.238
0.205,18.581,5.889,5.889,186.281,198.604,200.287
0.207,18.737,5.948,5.948,186.420,198.630,200.355
0.208,18.939,6.019,6.019,186.599,198.668,200.441
0.210,19.180,6.099,6.099,186.811,198.717,200.542
0.211,19.448,6.185,6.185,187.048,198.774,200.655
0.213,19.735,6.274,6.274,187.302,198.836,200.775
0.214,20.031,6.364,6.364,187.562,198.901,200.899
0.216,20.327,6.451,6.452,187.822,198.966,201.025
0.217,20.612,6.532,6.533,188.073,199.028,201.147
0.218,20.878,6.603,6.604,188.305,199.086,201.262
0.220,21.115,6.661,6.661,188.511,199.136,201.368
0.221,21.313,6.701,6.701,188.682,199.176,201.460
0.223,21.463,6.721,6.721,188.809,199.203,201.534
0.224,21.565,6.721,6.721,188.892,199.217,201.590
0.226,21.624,6.706,6.706,188.937,199.221,201.630
0.227,21.652,6.682,6.682,188.952,199.217,201.653
0.229,21.669,6.655,6.654,188.942,199.208,201.664
0.230,21.697,6.630,6.629,188.917,199.196,201.662
0.232,21.736,6.612,6.612,188.882,199.185,201.650
0.233,21.779,6.607,6.608,188.845,199.177,201.629
0.235,21.821,6.616,6.616,188.813,199.174,201.601
0.236,21.860,6.632,6.633,188.793,199.180,201.568
0.238,21.901,6.651,6.653,188.793,199.197,201.531
0.239,21.957,6.669,6.671,188.819,199.227,201.492
0.240,22.035,6.681,6.682,188.871,199.270,201.452
0.242,22.135,6.680,6.681,188.945,199.323,201.411
0.243,22.250,6.664,6.663,189.034,199.385,201.371
0.245,22.377,6.633,6.631,189.135,199.451,201.332
0.246,22.510,6.591,6.587,189.241,199.521,201.294
0.248,22.643,6.543,6.537,189.349,199.590,201.258
0.249,22.770,6.492,6.487,189.452,199.657,201.226
0.251,22.887,6.444,6.440,189.547,199.719,201.197
0.252,22.987,6.402,6.401,189.627,199.774,201.172
0.254,23.065,6.370,6.375,189.688,199.818,201.152
0.255,23.116,6.349,6.361,189.726,199.849,201.138
0.257,23.143,6.336,6.356,189.742,199.869,201.128
0.258,23.154,6.331,6.359,189.741,199.879,201.123
0.260,23.166,6.330,6.366,189.729,199.880,201.121
0.261,23.186,6.333,6.374,189.710,199.875,201.122
0.262,23.208,6.338,6.382,189.690,199.866,201.125
0.264,23.230,6.344,6.386,189.672,199.855,201.129
0.265,23.246,6.348,6.387,189.662,199.843,201.133
0.267,23.258,6.350,6.382,189.664,199.832,201.137
0.268,23.280,6.347,6.372,189.685,199.824,201.139
0.270,23.322,6.340,6.356,189.727,199.822,201.140
0.271,23.391,6.326,6.334,189.796,199.826,201.138
0.273,23.483,6.304,6.304,189.887,199.836,201.133
0.274,23.595,6.273,6.267,189.998,199.852,201.127
0.276,23.722,6.234,6.224,190.123,199.872,201.119
0.277,23.860,6.189,6.175,190.259,199.895,201.111
0.279,24.004,6.138,6.124,190.400,199.922,201.102
0.280,24.151,6.082,6.071,190.543,199.950,201.094
0.282,24.294,6.024,6.017,190.684,199.980,201.087
0.283,24.431,5.964,5.965,190.817,200.010,201.081
0.284,24.556,5.903,5.914,190.939,200.039,201.077
0.286,24.666,5.843,5.867,191.045,200.067,201.076
0.287,24.758,5.787,5.824,191.133,200.094,201.077
0.289,24.832,5.735,5.784,191.203,200.117,201.081
0.290,24.891,5.691,5.750,191.257,200.139,201.087
0.292,24.935,5.655,5.720,191.297,200.158,201.093
0.293,24.968,5.630,5.696,191.324,200.174,201.101
0.295,24.990,5.616,5.678,191.341,200.187,201.109
0.296,25.004,5.613,5.666,191.347,200.197,201.117
0.298,25.014,5.617,5.658,191.346,200.203,201.124
0.299,25.024,5.627,5.656,191.339,200.207,201.130
0.301,25.037,5.641,5.658,191.327,200.206,201.134
0.302,25.052,5.658,5.664,191.312,200.202,201.135
0.304,25.070,5.675,5.673,191.296,200.195,201.135
0.305,25.086,5.691,5.684,191.282,200.187,201.133
0.306,25.097,5.702,5.694,191.274,200.180,201.130
0.308,25.101,5.705,5.699,191.274,200.177,201.128
0.309,25.112,5.698,5.696,191.285,200.180,201.126
0.311,25.140,5.678,5.682,191.310,200.191,201.127
0.312,25.187,5.641,5.653,191.352,200.213,201.131
0.314,25.259,5.586,5.607,191.415,200.247,201.139
0.315,25.360,5.512,5.542,191.501,200.297,201.152
0.317,25.492,5.423,5.461,191.614,200.364,201.170
0.318,25.660,5.321,5.367,191.755,200.450,201.195
0.320,25.862,5.212,5.264,191.926,200.556,201.227
0.321,26.094,5.098,5.154,192.119,200.678,201.265
0.323,26.349,4.982,5.039,192.331,200.813,201.308
0.324,26.622,4.870,4.924,192.556,200.958,201.356
0.326,26.906,4.761,4.809,192.790,201.111,201.409
0.327,27.196,4.658,4.698,193.027,201.268,201.465
0.328,27.485,4.560,4.590,193.263,201.426,201.523
0.330,27.769,4.468,4.488,193.491,201.582,201.584
0.331,28.041,4.383,4.393,193.709,201.734,201.647
0.333,28.296,4.305,4.307,193.909,201.877,201.710
0.334,28.528,4.235,4.232,194.088,202.010,201.774
0.336,28.737,4.172,4.166,194.246,202.133,201.837
0.337,28.927,4.117,4.110,194.385,202.246,201.900
0.339,29.102,4.069,4.063,194.509,202.353,201.962
0.340,29.265,4.027,4.023,194.621,202.454,202.023
0.342,29.418,3.992,3.990,194.723,202.552,202.082
0.343,29.565,3.963,3.962,194.818,202.648,202.139
0.345,29.709,3.939,3.940,194.911,202.744,202.194
0.346,29.854,3.921,3.922,195.002,202.843,202.246
0.348,30.001,3.908,3.909,195.097,202.945,202.296
0.349,30.155,3.901,3.901,195.196,203.053,202.341
0.350,30.319,3.898,3.898,195.304,203.169,202.383
0.352,30.490,3.901,3.900,195.419,203.290,202.422
0.353,30.666,3.908,3.908,195.539,203.414,202.457
0.355,30.845,3.919,3.920,195.661,203.540,202.489
0.356,31.022,3.934,3.937,195.784,203.665,202.519
0.358,31.195,3.950,3.955,195.904,203.786,202.546
0.359,31.361,3.968,3.975,196.021,203.901,202.572
0.361,31.517,3.984,3.993,196.131,204.009,202.597
0.362,31.659,3.999,4.008,196.233,204.106,202.620
0.364,31.785,4.010,4.020,196.323,204.190,202.643
0.365,31.891,4.018,4.025,196.400,204.259,202.665
0.367,31.976,4.021,4.027,196.463,204.312,202.687
0.368,32.043,4.023,4.025,196.513,204.350,202.709
0.370,32.095,4.023,4.023,196.553,204.377,202.730
0.371,32.137,4.022,4.021,196.586,204.395,202.749
0.372,32.173,4.023,4.022,196.614,204.408,202.767
0.374,32.205,4.025,4.026,196.640,204.418,202.782
0.375,32.236,4.030,4.035,196.666,204.429,202.795
0.377,32.270,4.038,4.048,196.696,204.444,202.804
0.378,32.312,4.047,4.063,196.732,204.465,202.810
0.380,32.366,4.057,4.080,196.776,204.495,202.812
0.381,32.436,4.069,4.096,196.832,204.537,202.809
0.383,32.525,4.080,4.111,196.901,204.593,202.802
0.384,32.631,4.092,4.124,196.980,204.661,202.790
0.386,32.750,4.103,4.134,197.070,204.738,202.772
0.387,32.879,4.112,4.140,197.166,204.821,202.748
0.389,33.017,4.119,4.146,197.269,204.908,202.718
0.390,33.160,4.123,4.151,197.375,204.996,202.681
0.391,33.305,4.124,4.156,197.484,205.082,202.638
0.393,33.450,4.121,4.163,197.593,205.164,202.588
0.394,33.594,4.112,4.172,197.700,205.239,202.530
0.396,33.733,4.099,4.183,197.804,205.305,202.464
0.397,33.867,4.084,4.197,197.903,205.359,202.391
0.399,33.999,4.067,4.211,197.996,205.401,202.309
0.400,34.132,4.052,4.225,198.085,205.438,202.217
0.402,34.271,4.041,4.238,198.171,205.476,202.114
0.403,34.420,4.036,4.250,198.257,205.519,202.000
0.405,34.584,4.038,4.259,198.343,205.575,201.872
0.406,34.766,4.049,4.266,198.432,205.649,201.731
0.408,34.973,4.072,4.276,198.525,205.747,201.575
0.409,35.209,4.106,4.292,198.624,205.875,201.403
0.411,35.481,4.154,4.318,198.730,206.039,201.214
0.412,35.795,4.217,4.359,198.845,206.245,201.007
0.413,36.157,4.297,4.418,198.971,206.499,200.781
0.415,36.565,4.393,4.498,199.106,206.798,200.538
0.416,37.007,4.506,4.600,199.247,207.130,200.284
0.418,37.471,4.632,4.718,199.391,207.485,200.022
0.419,37.946,4.768,4.849,199.534,207.853,199.758
0.421,38.418,4.910,4.987,199.673,208.222,199.497
0.422,38.877,5.055,5.128,199.804,208.580,199.244
0.424,39.308,5.200,5.268,199.924,208.919,199.004
0.425,39.702,5.342,5.402,200.029,209.226,198.781
0.427,40.044,5.477,5.527,200.115,209.490,198.581
0.428,40.324,5.602,5.642,200.180,209.701,198.409
0.430,40.532,5.715,5.745,200.220,209.849,198.269
0.431,40.672,5.813,5.834,200.238,209.938,198.161
0.433,40.759,5.892,5.907,200.239,209.977,198.085
0.434,40.808,5.949,5.964,200.228,209.978,198.037
0.435,40.846,5.982,6.001,200.211,209.951,198.016
0.437,40.893,5.992,6.020,200.194,209.906,198.021
0.438,40.953,5.983,6.021,200.180,209.856,198.048
0.440,41.021,5.956,6.005,200.177,209.809,198.097
0.441,41.097,5.916,5.974,200.190,209.777,198.166
0.443,41.190,5.864,5.927,200.223,209.771,198.252
0.444,41.312,5.805,5.866,200.282,209.800,198.354
0.446,41.476,5.740,5.792,200.372,209.874,198.470
0.447,41.684,5.674,5.710,200.490,209.990,198.596
0.449,41.928,5.609,5.628,200.630,210.141,198.729
0.450,42.202,5.547,5.551,200.787,210.319,198.865
0.452,42.496,5.493,5.486,200.957,210.518,198.999
0.453,42.802,5.448,5.439,201.134,210.731,199.129
0.455,43.111,5.417,5.417,201.314,210.950,199.251
0.456,43.413,5.400,5.423,201.490,211.169,199.360
0.457,43.699,5.398,5.455,201.658,211.382,199.453
0.459,43.961,5.407,5.506,201.814,211.580,199.527
0.460,44.190,5.427,5.569,201.950,211.756,199.577
0.462,44.381,5.455,5.638,202.065,211.907,199.602
0.463,44.538,5.489,5.708,202.159,212.032,199.603
0.465,44.667,5.527,5.772,202.235,212.135,199.585
0.466,44.774,5.568,5.826,202.294,212.218,199.552
0.468,44.866,5.611,5.869,202.340,212.284,199.507
0.469,44.946,5.653,5.902,202.373,212.334,199.454
0.471,45.019,5.693,5.927,202.397,212.372,199.397
0.472,45.085,5.731,5.944,202.414,212.399,199.339
0.474,45.144,5.764,5.955,202.425,212.419,199.285
0.475,45.194,5.793,5.959,202.433,212.434,199.237
0.477,45.233,5.814,5.959,202.441,212.446,199.201
0.478,45.261,5.831,5.955,202.449,212.457,199.177
0.479,45.279,5.841,5.948,202.458,212.467,199.164
0.481,45.293,5.848,5.941,202.467,212.476,199.162
0.482,45.306,5.850,5.934,202.476,212.484,199.167
0.484,45.321,5.850,5.928,202.485,212.491,199.177
0.485,45.338,5.846,5.926,202.493,212.496,199.192
0.487,45.357,5.840,5.926,202.500,212.499,199.209
0.488,45.376,5.834,5.930,202.506,212.501,199.227
0.490,45.392,5.826,5.935,202.510,212.501,199.243
0.491,45.405,5.819,5.942,202.512,212.499,199.255
0.493,45.414,5.814,5.950,202.513,212.494,199.263
0.494,45.421,5.810,5.958,202.511,212.488,199.265
0.496,45.427,5.808,5.965,202.509,212.483,199.263
0.497,45.432,5.810,5.971,202.507,212.480,199.259
0.499,45.438,5.812,5.975,202.506,212.481,199.254
0.500,45.446,5.815,5.976,202.509,212.488,199.250
0.501,45.463,5.817,5.973,202.515,212.504,199.248
0.503,45.491,5.816,5.966,202.527,212.529,199.250
0.504,45.533,5.812,5.954,202.544,212.566,199.257
0.506,45.592,5.804,5.936,202.570,212.617,199.272
0.507,45.670,5.790,5.913,202.603,212.684,199.295
0.509,45.771,5.773,5.885,202.647,212.769,199.329
0.510,45.892,5.754,5.855,202.699,212.869,199.372
0.512,46.029,5.733,5.824,202.758,212.981,199.423
0.513,46.177,5.712,5.792,202.822,213.102,199.479
0.515,46.330,5.692,5.762,202.888,213.227,199.539
0.516,46.484,5.674,5.735,202.955,213.351,199.600
0.518,46.633,5.659,5.711,203.020,213.472,199.660
0.519,46.774,5.646,5.690,203.080,213.585,199.718
0.521,46.900,5.636,5.673,203.135,213.685,199.771
0.522,47.007,5.628,5.658,203.181,213.770,199.816
0.523,47.089,5.622,5.648,203.216,213.835,199.853
0.525,47.143,5.618,5.640,203.239,213.877,199.878
0.526,47.171,5.617,5.636,203.251,213.897,199.894
0.528,47.181,5.618,5.635,203.254,213.901,199.902
0.529,47.188,5.620,5.635,203.252,213.895,199.903
0.531,47.202,5.622,5.636,203.246,213.882,199.900
0.532,47.218,5.623,5.636,203.240,213.868,199.896
0.534,47.229,5.622,5.635,203.237,213.858,199.891
0.535,47.232,5.620,5.632,203.238,213.857,199.889
0.537,47.248,5.614,5.626,203.247,213.870,199.891
0.538,47.287,5.607,5.617,203.267,213.902,199.899
0.540,47.353,5.598,5.608,203.300,213.957,199.915
0.541,47.453,5.591,5.598,203.348,214.041,199.941
0.543,47.582,5.585,5.590,203.409,214.149,199.975
0.544,47.733,5.582,5.585,203.480,214.275,200.017
0.545,47.901,5.584,5.584,203.560,214.416,200.064
0.547,48.080,5.591,5.587,203.643,214.565,200.114
0.548,48.262,5.601,5.595,203.729,214.718,200.166
0.550,48.442,5.614,5.605,203.813,214.869,200.218
0.551,48.614,5.627,5.617,203.894,215.012,200.269
0.553,48.772,5.638,5.629,203.967,215.143,200.315
0.554,48.908,5.646,5.640,204.031,215.256,200.357
0.556,49.017,5.648,5.649,204.082,215.346,200.391
0.557,49.096,5.645,5.656,204.119,215.410,200.418
0.559,49.146,5.637,5.659,204.143,215.450,200.437
0.560,49.174,5.626,5.661,204.156,215.471,200.449
0.562,49.183,5.614,5.661,204.161,215.477,200.455
0.563,49.190,5.603,5.660,204.159,215.470,200.456
0.565,49.206,5.595,5.658,204.153,215.455,200.452
0.566,49.227,5.592,5.657,204.146,215.437,200.445
0.567,49.250,5.594,5.655,204.138,215.418,200.436
0.569,49.270,5.601,5.654,204.132,215.402,200.424
0.570,49.284,5.610,5.652,204.131,215.395,200.412
0.572,49.299,5.619,5.650,204.137,215.398,200.399
0.573,49.324,5.629,5.647,204.151,215.416,200.388
0.575,49.364,5.636,5.642,204.176,215.447,200.380
0.576,49.422,5.638,5.636,204.212,215.491,200.378
0.578,49.499,5.637,5.627,204.263,215.549,200.384
0.579,49.597,5.630,5.618,204.329,215.620,200.400
0.581,49.719,5.620,5.607,204.413,215.703,200.429
0.582,49.866,5.607,5.595,204.516,215.798,200.474
0.584,50.041,5.591,5.582,204.640,215.905,200.536
0.585,50.247,5.572,5.569,204.786,216.024,200.618
0.587,50.485,5.553,5.556,204.957,216.154,200.722
0.588,50.760,5.533,5.543,205.154,216.295,200.851
0.589,51.067,5.516,5.535,205.375,216.446,201.003
0.591,51.400,5.506,5.532,205.614,216.603,201.173
0.592,51.750,5.505,5.538,205.865,216.763,201.356
0.594,52.108,5.517,5.555,206.122,216.924,201.547
0.595,52.466,5.545,5.585,206.378,217.082,201.741
0.597,52.816,5.592,5.631,206.628,217.234,201.933
