"T","Distance","Radius","FreeRadius","X","Y","Z"
0.000,0.000,1.657,1.657,154.347,149.731,132.673
0.001,0.192,1.712,1.712,154.408,149.578,132.773
0.003,0.383,1.768,1.768,154.469,149.427,132.872
0.004,0.573,1.826,1.826,154.530,149.276,132.969
0.006,0.759,1.886,1.886,154.593,149.128,133.064
0.007,0.943,1.949,1.949,154.656,148.982,133.155
0.009,1.122,2.016,2.016,154.722,148.839,133.240
0.010,1.297,2.087,2.087,154.790,148.699,133.321
0.012,1.466,2.163,2.163,154.860,148.564,133.394
0.013,1.630,2.242,2.242,154.934,148.433,133.460
0.015,1.787,2.319,2.319,155.010,148.309,133.517
0.016,1.938,2.392,2.392,155.090,148.190,133.565
0.018,2.083,2.459,2.459,155.174,148.077,133.602
0.019,2.222,2.517,2.517,155.262,147.973,133.628
0.021,2.356,2.562,2.562,155.353,147.875,133.644
0.022,2.485,2.594,2.594,155.445,147.786,133.653
0.024,2.607,2.615,2.615,155.536,147.705,133.658
0.025,2.721,2.630,2.630,155.625,147.633,133.662
0.027,2.826,2.642,2.642,155.708,147.569,133.667
0.028,2.920,2.653,2.653,155.784,147.515,133.677
0.029,3.003,2.667,2.667,155.852,147.470,133.695
0.031,3.075,2.687,2.687,155.908,147.435,133.723
0.032,3.140,2.717,2.717,155.952,147.410,133.764
0.034,3.206,2.756,2.756,155.980,147.396,133.822
0.035,3.283,2.808,2.808,155.992,147.392,133.898
0.037,3.382,2.872,2.872,155.984,147.399,133.997
0.038,3.507,2.951,2.951,155.958,147.417,134.117
0.040,3.656,3.047,3.047,155.916,147.445,134.258
0.041,3.826,3.159,3.159,155.861,147.482,134.414
0.043,4.013,3.287,3.287,155.796,147.526,134.584
0.044,4.212,3.426,3.426,155.726,147.577,134.763
0.046,4.420,3.570,3.570,155.651,147.633,134.950
0.047,4.633,3.716,3.716,155.577,147.695,135.139
0.049,4.846,3.859,3.859,155.506,147.759,135.329
0.050,5.055,3.993,3.993,155.442,147.827,135.516
0.052,5.256,4.116,4.116,155.387,147.896,135.697
0.053,5.445,4.225,4.225,155.344,147.965,135.868
0.055,5.620,4.323,4.323,155.318,148.034,136.027
0.056,5.779,4.409,4.409,155.310,148.101,136.170
0.058,5.924,4.487,4.487,155.319,148.167,136.299
0.059,6.057,4.556,4.556,155.342,148.232,136.413
0.060,6.181,4.619,4.619,155.378,148.294,136.514
0.062,6.299,4.675,4.675,155.425,148.355,136.603
0.063,6.410,4.726,4.726,155.480,148.414,136.680
0.065,6.517,4.770,4.770,155.541,148.471,136.746
0.066,6.619,4.809,4.809,155.606,148.526,136.802
0.068,6.717,4.843,4.843,155.673,148.580,136.849
0.069,6.810,4.870,4.870,155.740,148.631,136.887
0.071,6.897,4.892,4.892,155.805,148.681,136.918
0.072,6.977,4.908,4.908,155.865,148.728,136.942
0.074,7.050,4.919,4.919,155.919,148.773,136.960
0.075,7.115,4.925,4.925,155.967,148.817,136.973
0.077,7.176,4.928,4.928,156.010,148.858,136.982
0.078,7.232,4.929,4.929,156.051,148.896,136.988
0.080,7.286,4.927,4.927,156.090,148.933,136.993
0.081,7.339,4.925,4.925,156.131,148.967,136.997
0.083,7.392,4.922,4.922,156.173,148.998,137.001
0.084,7.447,4.917,4.917,156.219,149.027,137.007
0.086,7.506,4.912,4.912,156.271,149.054,137.016
0.087,7.571,4.904,4.904,156.330,149.078,137.029
0.088,7.644,4.895,4.895,156.398,149.099,137.046
0.090,7.728,4.884,4.884,156.477,149.117,137.070
0.091,7.825,4.870,4.870,156.568,149.132,137.100
0.093,7.936,4.853,4.853,156.671,149.145,137.138
0.094,8.058,4.835,4.835,156.784,149.155,137.182
0.096,8.188,4.816,4.816,156.905,149.163,137.230
0.097,8.323,4.798,4.798,157.030,149.169,137.282
0.099,8.462,4.781,4.781,157.157,149.173,137.336
0.100,8.601,4.767,4.767,157.285,149.175,137.391
0.102,8.737,4.756,4.756,157.409,149.177,137.446
0.103,8.867,4.749,4.749,157.528,149.177,137.498
0.105,8.989,4.745,4.745,157.639,149.177,137.548
0.106,9.099,4.743,4.743,157.740,149.176,137.594
0.108,9.196,4.743,4.743,157.828,149.175,137.634
0.109,9.276,4.744,4.744,157.901,149.175,137.667
0.111,9.337,4.746,4.746,157.956,149.174,137.692
0.112,9.381,4.748,4.748,157.997,149.174,137.711
0.114,9.412,4.749,4.749,158.024,149.173,137.724
0.115,9.431,4.750,4.750,158.042,149.171,137.733
0.117,9.443,4.750,4.750,158.052,149.168,137.739
0.118,9.451,4.748,4.748,158.057,149.164,137.743
0.119,9.460,4.745,4.745,158.059,149.157,137.746
0.121,9.471,4.740,4.740,158.062,149.147,137.751
0.122,9.486,4.733,4.733,158.068,149.135,137.758
0.124,9.508,4.723,4.723,158.079,149.119,137.768
0.125,9.539,4.712,4.712,158.098,149.099,137.782
0.127,9.582,4.699,4.699,158.127,149.075,137.803
0.128,9.640,4.685,4.685,158.169,149.046,137.831
0.130,9.714,4.669,4.669,158.225,149.013,137.866
0.131,9.802,4.652,4.652,158.292,148.977,137.909
0.133,9.903,4.634,4.634,158.372,148.939,137.960
0.134,10.018,4.617,4.617,158.462,148.899,138.018
0.136,10.144,4.602,4.602,158.563,148.860,138.083
0.137,10.281,4.590,4.590,158.673,148.821,138.155
0.139,10.429,4.583,4.583,158.791,148.783,138.235
0.140,10.586,4.582,4.582,158.918,148.748,138.322
0.142,10.752,4.589,4.589,159.051,148.717,138.416
0.143,10.926,4.605,4.605,159.190,148.691,138.517
0.145,11.108,4.629,4.629,159.335,148.670,138.625
0.146,11.297,4.659,4.659,159.484,148.655,138.740
0.147,11.492,4.696,4.696,159.637,148.647,138.861
0.149,11.693,4.737,4.737,159.793,148.644,138.988
0.150,11.898,4.781,4.781,159.950,148.646,139.119
0.152,12.105,4.828,4.828,160.107,148.652,139.253
0.153,12.312,4.876,4.876,160.264,148.659,139.389
0.155,12.519,4.924,4.924,160.419,148.668,139.526
0.156,12.724,4.971,4.971,160.570,148.677,139.663
0.158,12.924,5.015,5.015,160.718,148.685,139.799
0.159,13.119,5.054,5.054,160.861,148.690,139.931
0.161,13.307,5.088,5.088,160.997,148.693,140.061
0.162,13.486,5.115,5.115,161.126,148.691,140.185
0.164,13.655,5.135,5.135,161.246,148.684,140.304
0.165,13.813,5.151,5.151,161.357,148.670,140.415
0.167,13.961,5.166,5.166,161.459,148.651,140.520
0.168,14.098,5.182,5.182,161.552,148.626,140.618
0.170,14.227,5.203,5.203,161.638,148.597,140.709
0.171,14.348,5.230,5.230,161.717,148.563,140.794
0.173,14.460,5.267,5.267,161.790,148.525,140.871
0.174,14.566,5.314,5.314,161.857,148.485,140.943
0.176,14.665,5.366,5.366,161.918,148.441,141.007
0.177,14.759,5.422,5.422,161.976,148.396,141.065
0.178,14.847,5.478,5.478,162.029,148.349,141.117
0.180,14.930,5.532,5.532,162.079,148.300,141.163
0.181,15.008,5.581,5.581,162.126,148.252,141.202
0.183,15.082,5.622,5.622,162.172,148.203,141.235
0.184,15.153,5.655,5.655,162.215,148.155,141.263
0.186,15.220,5.683,5.683,162.257,148.108,141.287
0.187,15.285,5.707,5.707,162.297,148.063,141.310
0.189,15.347,5.729,5.729,162.335,148.020,141.334
0.190,15.406,5.751,5.751,162.371,147.980,141.359
0.192,15.464,5.776,5.776,162.405,147.944,141.387
0.193,15.521,5.804,5.804,162.437,147.911,141.421
0.195,15.579,5.834,5.834,162.468,147.883,141.462
0.196,15.640,5.865,5.865,162.496,147.861,141.511
0.198,15.708,5.895,5.895,162.523,147.844,141.571
0.199,15.784,5.921,5.921,162.547,147.833,141.643
0.201,15.873,5.942,5.942,162.570,147.829,141.728
0.202,15.974,5.956,5.956,162.590,147.833,141.828
0.204,16.088,5.962,5.962,162.609,147.842,141.939
0.205,16.213,5.960,5.960,162.627,147.856,142.062
0.206,16.347,5.953,5.953,162.643,147.873,142.194
0.208,16.489,5.943,5.943,162.658,147.894,142.333
0.209,16.636,5.930,5.930,162.673,147.917,142.479
0.211,16.788,5.918,5.918,162.687,147.942,142.628
0.212,16.943,5.908,5.908,162.700,147.966,142.780
0.214,17.098,5.901,5.901,162.714,147.989,142.933
0.215,17.253,5.897,5.897,162.727,148.011,143.086
0.217,17.405,5.897,5.897,162.741,148.030,143.236
0.218,17.552,5.901,5.901,162.756,148.045,143.381
0.220,17.694,5.908,5.908,162.771,148.055,143.522
0.221,17.829,5.920,5.920,162.787,148.062,143.656
0.223,17.958,5.935,5.935,162.803,148.065,143.784
0.224,18.079,5.953,5.953,162.817,148.065,143.904
0.226,18.191,5.973,5.973,162.831,148.062,144.016
0.227,18.295,5.994,5.993,162.842,148.056,144.119
0.229,18.390,6.012,6.012,162.852,148.049,144.213
0.230,18.474,6.028,6.028,162.859,148.040,144.296
0.232,18.548,6.040,6.040,162.862,148.030,144.369
0.233,18.611,6.045,6.045,162.862,148.020,144.431
0.235,18.662,6.045,6.045,162.858,148.009,144.481
0.236,18.702,6.040,6.041,162.848,147.999,144.519
0.237,18.732,6.035,6.035,162.834,147.989,144.544
0.239,18.756,6.030,6.031,162.816,147.981,144.557
0.240,18.777,6.029,6.030,162.797,147.974,144.562
0.242,18.797,6.034,6.034,162.778,147.969,144.561
0.243,18.814,6.046,6.046,162.762,147.965,144.557
0.245,18.826,6.064,6.063,162.751,147.964,144.553
0.246,18.830,6.085,6.084,162.747,147.965,144.551
0.248,18.837,6.104,6.103,162.753,147.968,144.554
0.249,18.859,6.118,6.118,162.771,147.974,144.565
0.251,18.899,6.123,6.125,162.802,147.984,144.587
0.252,18.959,6.115,6.120,162.850,147.996,144.622
0.254,19.044,6.091,6.099,162.915,148.013,144.674
0.255,19.157,6.053,6.066,163.001,148.033,144.744
0.257,19.298,6.004,6.022,163.108,148.057,144.833
0.258,19.461,5.949,5.971,163.230,148.084,144.938
0.260,19.643,5.890,5.917,163.366,148.115,145.055
0.261,19.839,5.834,5.862,163.511,148.149,145.182
0.263,20.043,5.782,5.812,163.662,148.185,145.315
0.264,20.250,5.739,5.767,163.814,148.223,145.450
0.265,20.457,5.704,5.728,163.965,148.263,145.585
0.267,20.657,5.675,5.695,164.111,148.304,145.715
0.268,20.846,5.651,5.666,164.248,148.347,145.839
0.270,21.020,5.631,5.640,164.372,148.390,145.952
0.271,21.173,5.612,5.616,164.480,148.434,146.052
0.273,21.302,5.594,5.594,164.569,148.478,146.134
0.274,21.403,5.575,5.572,164.635,148.522,146.198
0.276,21.481,5.556,5.551,164.682,148.563,146.244
0.277,21.538,5.537,5.532,164.712,148.598,146.276
0.279,21.576,5.519,5.515,164.730,148.626,146.296
0.280,21.599,5.503,5.500,164.739,148.644,146.307
0.282,21.606,5.490,5.488,164.741,148.650,146.310
0.283,21.615,5.479,5.479,164.741,148.641,146.310
0.285,21.641,5.471,5.474,164.741,148.615,146.308
0.286,21.687,5.463,5.469,164.745,148.570,146.307
0.288,21.755,5.452,5.461,164.757,148.502,146.310
0.289,21.850,5.435,5.447,164.779,148.411,146.319
0.291,21.975,5.409,5.424,164.815,148.292,146.336
0.292,22.134,5.371,5.390,164.869,148.146,146.365
0.294,22.324,5.318,5.341,164.938,147.973,146.405
0.295,22.541,5.251,5.277,165.022,147.779,146.455
0.296,22.779,5.173,5.203,165.116,147.569,146.514
0.298,23.033,5.088,5.121,165.220,147.347,146.580
0.299,23.297,5.002,5.036,165.329,147.118,146.653
0.301,23.566,4.918,4.953,165.443,146.887,146.731
0.302,23.834,4.840,4.875,165.557,146.658,146.814
0.304,24.097,4.773,4.805,165.670,146.437,146.899
0.305,24.348,4.718,4.746,165.780,146.228,146.986
0.307,24.584,4.673,4.695,165.883,146.036,147.074
0.308,24.797,4.635,4.652,165.977,145.866,147.162
0.310,24.984,4.604,4.615,166.060,145.721,147.247
0.311,25.144,4.577,4.583,166.131,145.605,147.331
0.313,25.282,4.553,4.554,166.191,145.512,147.413
0.314,25.400,4.529,4.527,166.241,145.441,147.493
0.316,25.503,4.505,4.502,166.282,145.388,147.571
0.317,25.596,4.481,4.477,166.317,145.349,147.648
0.319,25.682,4.457,4.454,166.345,145.322,147.724
0.320,25.763,4.432,4.430,166.369,145.303,147.800
0.322,25.842,4.408,4.407,166.389,145.289,147.874
0.323,25.919,4.383,4.383,166.408,145.277,147.949
0.324,25.996,4.358,4.358,166.425,145.264,148.023
0.326,26.075,4.332,4.333,166.442,145.246,148.097
0.327,26.156,4.308,4.308,166.462,145.220,148.171
0.329,26.242,4.284,4.284,166.483,145.184,148.247
0.330,26.334,4.263,4.262,166.508,145.137,148.323
0.332,26.434,4.243,4.243,166.536,145.082,148.400
0.333,26.541,4.227,4.227,166.566,145.017,148.480
0.335,26.656,4.213,4.214,166.600,144.945,148.563
0.336,26.779,4.203,4.206,166.638,144.865,148.649
0.338,26.911,4.197,4.201,166.678,144.778,148.739
0.339,27.050,4.194,4.199,166.723,144.685,148.833
0.341,27.198,4.194,4.201,166.771,144.587,148.932
0.342,27.354,4.198,4.207,166.823,144.483,149.036
0.344,27.518,4.206,4.215,166.879,144.376,149.146
0.345,27.690,4.217,4.227,166.940,144.265,149.263
0.347,27.869,4.232,4.242,167.004,144.151,149.386
0.348,28.056,4.251,4.260,167.072,144.035,149.515
0.350,28.246,4.273,4.282,167.142,143.919,149.648
0.351,28.437,4.300,4.308,167.213,143.803,149.783
0.353,28.628,4.330,4.338,167.285,143.689,149.918
0.354,28.815,4.365,4.371,167.356,143.579,150.051
0.355,28.995,4.403,4.408,167.424,143.473,150.181
0.357,29.168,4.443,4.448,167.489,143.372,150.305
0.358,29.329,4.484,4.487,167.550,143.278,150.421
0.360,29.477,4.524,4.526,167.606,143.193,150.528
0.361,29.609,4.560,4.562,167.655,143.117,150.625
0.363,29.723,4.593,4.593,167.697,143.051,150.708
0.364,29.816,4.619,4.619,167.730,142.998,150.776
0.366,29.888,4.639,4.638,167.754,142.956,150.829
0.367,29.941,4.653,4.652,167.770,142.924,150.868
0.369,29.977,4.663,4.662,167.780,142.902,150.896
0.370,29.999,4.669,4.668,167.784,142.888,150.912
0.372,30.009,4.673,4.672,167.784,142.881,150.919
0.373,30.014,4.675,4.675,167.780,142.878,150.918
0.375,30.023,4.677,4.677,167.775,142.880,150.910
0.376,30.038,4.679,4.679,167.767,142.884,150.898
0.378,30.056,4.681,4.681,167.760,142.890,150.882
0.379,30.076,4.683,4.683,167.754,142.895,150.864
0.381,30.095,4.684,4.685,167.750,142.899,150.846
0.382,30.113,4.686,4.686,167.749,142.900,150.828
0.383,30.129,4.688,4.688,167.751,142.897,150.813
0.385,30.144,4.690,4.690,167.758,142.891,150.800
0.386,30.161,4.692,4.692,167.767,142.882,150.791
0.388,30.179,4.694,4.693,167.780,142.869,150.787
0.389,30.201,4.696,4.695,167.796,142.853,150.787
0.391,30.228,4.697,4.697,167.814,142.835,150.792
0.392,30.259,4.699,4.699,167.834,142.814,150.804
0.394,30.296,4.701,4.701,167.855,142.791,150.823
0.395,30.339,4.702,4.703,167.879,142.766,150.849
0.397,30.388,4.704,4.705,167.903,142.739,150.883
0.398,30.445,4.706,4.707,167.928,142.711,150.925
0.400,30.510,4.709,4.711,167.953,142.681,150.977
0.401,30.584,4.713,4.715,167.979,142.651,151.039
0.403,30.666,4.719,4.720,168.005,142.620,151.111
0.404,30.755,4.726,4.726,168.031,142.588,151.189
0.406,30.850,4.735,4.733,168.058,142.557,151.275
0.407,30.950,4.746,4.742,168.087,142.526,151.366
0.409,31.054,4.756,4.750,168.116,142.495,151.461
0.410,31.161,4.764,4.757,168.147,142.466,151.559
0.412,31.269,4.770,4.764,168.180,142.438,151.658
0.413,31.378,4.773,4.769,168.215,142.411,151.758
0.414,31.486,4.771,4.772,168.252,142.387,151.857
0.416,31.593,4.763,4.772,168.292,142.365,151.953
0.417,31.697,4.752,4.770,168.334,142.346,152.046
0.419,31.798,4.738,4.766,168.380,142.329,152.135
0.420,31.896,4.724,4.761,168.429,142.316,152.219
0.422,31.994,4.710,4.755,168.482,142.304,152.300
0.423,32.094,4.699,4.749,168.541,142.294,152.380
0.425,32.199,4.691,4.742,168.606,142.283,152.462
0.426,32.309,4.687,4.736,168.677,142.273,152.546
0.428,32.429,4.686,4.730,168.756,142.261,152.634
0.429,32.559,4.688,4.724,168.844,142.246,152.729
0.431,32.701,4.692,4.718,168.940,142.229,152.832
0.432,32.858,4.696,4.711,169.047,142.208,152.946
0.434,33.032,4.699,4.704,169.165,142.182,153.071
0.435,33.224,4.701,4.696,169.294,142.151,153.209
0.437,33.436,4.703,4.691,169.436,142.113,153.363
0.438,33.670,4.709,4.691,169.590,142.068,153.533
0.440,33.922,4.721,4.700,169.755,142.016,153.716
0.441,34.189,4.744,4.724,169.929,141.954,153.909
0.442,34.467,4.781,4.766,170.109,141.884,154.108
0.444,34.752,4.835,4.830,170.295,141.804,154.309
0.445,35.041,4.909,4.920,170.483,141.713,154.509
0.447,35.332,5.001,5.031,170.673,141.611,154.705
0.448,35.622,5.102,5.155,170.861,141.497,154.893
0.450,35.907,5.208,5.280,171.046,141.371,155.070
0.451,36.186,5.310,5.399,171.226,141.231,155.232
0.453,36.458,5.402,5.501,171.399,141.078,155.375
0.454,36.723,5.477,5.578,171.562,140.910,155.497
0.456,36.980,5.529,5.620,171.715,140.728,155.594
0.457,37.232,5.560,5.633,171.857,140.532,155.668
0.459,37.482,5.577,5.628,171.988,140.326,155.721
0.460,37.731,5.585,5.613,172.108,140.112,155.757
0.462,37.977,5.590,5.599,172.219,139.893,155.778
0.463,38.220,5.597,5.596,172.320,139.671,155.788
0.465,38.460,5.614,5.613,172.412,139.450,155.790
0.466,38.693,5.643,5.659,172.495,139.233,155.787
0.468,38.918,5.684,5.729,172.570,139.020,155.781
0.469,39.132,5.732,5.815,172.637,138.817,155.776
0.471,39.334,5.785,5.910,172.696,138.624,155.775
0.472,39.520,5.839,6.005,172.748,138.446,155.781
0.473,39.689,5.890,6.095,172.794,138.284,155.796
0.475,39.841,5.934,6.170,172.833,138.139,155.823
0.476,39.980,5.970,6.226,172.867,138.009,155.858
0.478,40.106,5.999,6.265,172.895,137.894,155.901
0.479,40.222,6.023,6.290,172.920,137.792,155.951
0.481,40.331,6.044,6.303,172.940,137.701,156.007
0.482,40.433,6.063,6.308,172.957,137.619,156.066
0.484,40.529,6.083,6.308,172.972,137.546,156.127
0.485,40.621,6.106,6.304,172.984,137.480,156.190
0.487,40.709,6.133,6.301,172.996,137.419,156.252
0.488,40.793,6.162,6.297,173.006,137.362,156.312
0.490,40.872,6.193,6.294,173.016,137.308,156.370
0.491,40.948,6.224,6.293,173.027,137.254,156.422
0.493,41.021,6.255,6.293,173.038,137.200,156.470
0.494,41.092,6.284,6.296,173.051,137.145,156.512
0.496,41.160,6.309,6.302,173.063,137.090,156.550
0.497,41.227,6.332,6.310,173.075,137.033,156.583
0.499,41.294,6.353,6.323,173.087,136.974,156.613
0.500,41.361,6.372,6.340,173.099,136.913,156.639
0.501,41.430,6.391,6.363,173.110,136.850,156.662
0.503,41.499,6.410,6.391,173.119,136.784,156.683
0.504,41.571,6.431,6.425,173.128,136.715,156.702
0.506,41.645,6.455,6.465,173.134,136.643,156.718
0.507,41.723,6.481,6.512,173.138,136.568,156.734
0.509,41.804,6.509,6.562,173.141,136.488,156.749
0.510,41.889,6.538,6.614,173.140,136.404,156.763
0.512,41.977,6.568,6.667,173.138,136.317,156.777
0.513,42.068,6.597,6.717,173.133,136.227,156.791
0.515,42.160,6.625,6.764,173.128,136.136,156.804
0.516,42.253,6.652,6.805,173.122,136.044,156.816
0.518,42.345,6.676,6.840,173.115,135.953,156.828
0.519,42.435,6.698,6.868,173.110,135.864,156.838
0.521,42.523,6.718,6.891,173.104,135.777,156.848
0.522,42.607,6.736,6.908,173.101,135.693,156.856
0.524,42.686,6.751,6.918,173.099,135.614,156.863
0.525,42.760,6.765,6.923,173.100,135.541,156.869
0.527,42.827,6.775,6.921,173.103,135.474,156.874
0.528,42.887,6.784,6.915,173.110,135.414,156.877
0.529,42.940,6.790,6.907,173.120,135.363,156.879
0.531,42.986,6.794,6.897,173.133,135.318,156.879
0.532,43.027,6.796,6.887,173.148,135.280,156.878
0.534,43.062,6.796,6.880,173.165,135.249,156.877
0.535,43.094,6.794,6.875,173.183,135.223,156.874
0.537,43.121,6.791,6.876,173.200,135.202,156.872
0.538,43.145,6.786,6.881,173.218,135.186,156.869
0.540,43.166,6.780,6.888,173.234,135.174,156.865
0.541,43.183,6.773,6.896,173.249,135.166,156.862
0.543,43.198,6.767,6.905,173.262,135.161,156.859
0.544,43.208,6.762,6.914,173.272,135.158,156.857
0.546,43.215,6.758,6.920,173.279,135.157,156.855
0.547,43.219,6.756,6.923,173.282,135.158,156.854
0.549,43.221,6.755,6.924,173.282,135.160,156.854
0.550,43.224,6.755,6.923,173.280,135.162,156.854
0.552,43.229,6.756,6.922,173.276,135.165,156.854
0.553,43.234,6.757,6.919,173.272,135.168,156.855
0.555,43.239,6.759,6.917,173.268,135.170,156.855
0.556,43.243,6.761,6.916,173.264,135.172,156.856
0.558,43.245,6.763,6.916,173.262,135.172,156.856
0.559,43.246,6.763,6.916,173.263,135.171,156.857
0.560,43.251,6.762,6.916,173.266,135.167,156.856
0.562,43.260,6.758,6.915,173.274,135.161,156.855
0.563,43.275,6.752,6.912,173.286,135.153,156.854
0.565,43.297,6.741,6.906,173.303,135.141,156.851
0.566,43.326,6.727,6.897,173.327,135.125,156.848
0.568,43.364,6.707,6.885,173.359,135.103,156.846
0.569,43.414,6.682,6.867,173.400,135.076,156.844
0.571,43.476,6.651,6.842,173.452,135.041,156.844
0.572,43.552,6.613,6.810,173.515,134.998,156.847
0.574,43.645,6.568,6.770,173.592,134.946,156.852
0.575,43.756,6.515,6.719,173.682,134.883,156.862
0.577,43.886,6.455,6.658,173.789,134.809,156.875
0.578,44.038,6.387,6.587,173.912,134.723,156.893
0.580,44.213,6.314,6.510,174.054,134.623,156.918
0.581,44.414,6.239,6.429,174.215,134.508,156.948
0.583,44.640,6.162,6.348,174.397,134.378,156.985
0.584,44.892,6.087,6.270,174.598,134.234,157.029
0.586,45.162,6.016,6.197,174.814,134.079,157.079
0.587,45.446,5.949,6.133,175.040,133.915,157.132
0.588,45.738,5.889,6.077,175.272,133.747,157.189
0.590,46.033,5.834,6.026,175.506,133.578,157.247
0.591,46.324,5.785,5.980,175.737,133.410,157.306
0.593,46.607,5.740,5.935,175.961,133.247,157.364
0.594,46.875,5.700,5.890,176.173,133.093,157.421
0.596,47.124,5.665,5.844,176.369,132.949,157.474
0.597,47.348,5.633,5.794,176.545,132.820,157.523
0.599,47.541,5.606,5.742,176.697,132.709,157.566
0.600,47.697,5.584,5.692,176.819,132.619,157.603
0.602,47.814,5.567,5.645,176.910,132.551,157.632
