"T","Distance","Radius","FreeRadius","X","Y","Z"
0.000,0.000,2.588,2.588,74.802,-50.745,-2.766
0.001,0.272,2.660,2.660,74.662,-50.872,-2.961
0.003,0.542,2.733,2.733,74.522,-50.998,-3.155
0.004,0.809,2.808,2.808,74.384,-51.122,-3.347
0.006,1.070,2.887,2.887,74.249,-51.242,-3.535
0.007,1.324,2.968,2.968,74.117,-51.357,-3.719
0.008,1.568,3.055,3.055,73.990,-51.466,-3.897
0.010,1.802,3.148,3.148,73.867,-51.568,-4.068
0.011,2.023,3.246,3.246,73.751,-51.662,-4.231
0.013,2.230,3.350,3.350,73.642,-51.746,-4.385
0.014,2.420,3.456,3.456,73.541,-51.819,-4.529
0.015,2.593,3.562,3.562,73.448,-51.880,-4.661
0.017,2.746,3.664,3.664,73.365,-51.928,-4.780
0.018,2.879,3.760,3.760,73.292,-51.962,-4.886
0.020,2.991,3.848,3.848,73.231,-51.980,-4.978
0.021,3.084,3.925,3.925,73.179,-51.985,-5.056
0.022,3.163,3.990,3.990,73.136,-51.979,-5.122
0.024,3.230,4.044,4.044,73.102,-51.962,-5.176
0.025,3.288,4.090,4.090,73.075,-51.936,-5.221
0.026,3.340,4.128,4.128,73.055,-51.904,-5.257
0.028,3.389,4.161,4.161,73.039,-51.866,-5.284
0.029,3.437,4.189,4.189,73.029,-51.824,-5.305
0.031,3.484,4.213,4.213,73.022,-51.781,-5.319
0.032,3.529,4.236,4.236,73.018,-51.736,-5.329
0.033,3.573,4.257,4.257,73.016,-51.693,-5.336
0.035,3.613,4.275,4.275,73.014,-51.653,-5.339
0.036,3.650,4.291,4.291,73.013,-51.617,-5.342
0.038,3.681,4.305,4.305,73.011,-51.586,-5.343
0.039,3.707,4.317,4.317,73.009,-51.560,-5.344
0.040,3.728,4.326,4.326,73.006,-51.539,-5.344
0.042,3.745,4.333,4.333,73.004,-51.522,-5.345
0.043,3.759,4.338,4.338,73.001,-51.509,-5.346
0.045,3.768,4.342,4.342,72.998,-51.500,-5.348
0.046,3.775,4.345,4.345,72.996,-51.494,-5.350
0.047,3.780,4.349,4.349,72.994,-51.491,-5.353
0.049,3.785,4.353,4.353,72.992,-51.492,-5.358
0.050,3.792,4.360,4.360,72.991,-51.494,-5.365
0.052,3.802,4.368,4.368,72.990,-51.500,-5.373
0.053,3.814,4.379,4.379,72.991,-51.507,-5.383
0.054,3.830,4.391,4.391,72.992,-51.516,-5.396
0.056,3.849,4.405,4.405,72.993,-51.526,-5.412
0.057,3.869,4.419,4.419,72.996,-51.537,-5.429
0.059,3.892,4.433,4.433,72.998,-51.550,-5.447
0.060,3.916,4.446,4.446,73.000,-51.563,-5.468
0.061,3.942,4.459,4.459,73.002,-51.578,-5.488
0.063,3.968,4.470,4.470,73.003,-51.592,-5.510
0.064,3.994,4.480,4.480,73.002,-51.607,-5.531
0.066,4.020,4.488,4.488,73.001,-51.623,-5.553
0.067,4.046,4.494,4.494,72.997,-51.638,-5.574
0.068,4.072,4.498,4.498,72.992,-51.653,-5.594
0.070,4.097,4.500,4.500,72.984,-51.667,-5.612
0.071,4.121,4.500,4.500,72.973,-51.681,-5.629
0.073,4.145,4.497,4.497,72.960,-51.695,-5.644
0.074,4.170,4.492,4.492,72.944,-51.707,-5.657
0.075,4.194,4.485,4.485,72.925,-51.718,-5.669
0.077,4.220,4.476,4.476,72.904,-51.728,-5.680
0.078,4.247,4.466,4.466,72.880,-51.736,-5.690
0.079,4.274,4.456,4.456,72.856,-51.743,-5.699
0.081,4.302,4.444,4.444,72.829,-51.748,-5.709
0.082,4.332,4.433,4.433,72.802,-51.750,-5.718
0.084,4.362,4.420,4.420,72.773,-51.751,-5.729
0.085,4.393,4.407,4.407,72.744,-51.749,-5.740
0.086,4.426,4.393,4.393,72.714,-51.744,-5.753
0.088,4.460,4.377,4.377,72.685,-51.737,-5.767
0.089,4.495,4.360,4.360,72.655,-51.727,-5.783
0.091,4.532,4.340,4.340,72.626,-51.714,-5.802
0.092,4.570,4.319,4.319,72.597,-51.701,-5.823
0.093,4.608,4.296,4.296,72.568,-51.691,-5.844
0.095,4.645,4.271,4.271,72.539,-51.686,-5.867
0.096,4.682,4.245,4.245,72.510,-51.689,-5.890
0.098,4.722,4.220,4.220,72.480,-51.705,-5.912
0.099,4.770,4.194,4.194,72.449,-51.734,-5.934
0.100,4.830,4.168,4.168,72.418,-51.781,-5.954
0.102,4.907,4.144,4.144,72.386,-51.848,-5.972
0.103,5.004,4.121,4.121,72.352,-51.939,-5.988
0.105,5.126,4.100,4.100,72.317,-52.055,-6.000
0.106,5.277,4.080,4.080,72.281,-52.201,-6.009
0.107,5.459,4.061,4.061,72.242,-52.378,-6.014
0.109,5.672,4.045,4.045,72.202,-52.588,-6.016
0.110,5.913,4.030,4.030,72.159,-52.825,-6.015
0.112,6.174,4.018,4.018,72.111,-53.081,-6.017
0.113,6.449,4.007,4.007,72.059,-53.352,-6.023
0.114,6.732,3.996,3.996,72.001,-53.628,-6.036
0.116,7.018,3.985,3.985,71.936,-53.906,-6.058
0.117,7.301,3.972,3.972,71.863,-54.177,-6.094
0.119,7.576,3.955,3.955,71.782,-54.434,-6.145
0.120,7.841,3.934,3.934,71.690,-54.673,-6.215
0.121,8.093,3.907,3.907,71.588,-54.885,-6.305
0.123,8.334,3.874,3.874,71.475,-55.065,-6.420
0.124,8.570,3.836,3.836,71.349,-55.205,-6.561
0.126,8.810,3.798,3.798,71.209,-55.299,-6.732
0.127,9.065,3.760,3.760,71.057,-55.347,-6.932
0.128,9.341,3.727,3.727,70.895,-55.352,-7.155
0.130,9.637,3.699,3.699,70.725,-55.322,-7.394
0.131,9.948,3.681,3.681,70.551,-55.262,-7.645
0.132,10.269,3.674,3.674,70.376,-55.178,-7.901
0.134,10.594,3.677,3.677,70.202,-55.076,-8.157
0.135,10.916,3.686,3.686,70.032,-54.963,-8.405
0.137,11.225,3.699,3.699,69.870,-54.844,-8.640
0.138,11.515,3.712,3.712,69.718,-54.725,-8.857
0.139,11.777,3.723,3.723,69.579,-54.613,-9.049
0.141,12.003,3.729,3.729,69.457,-54.513,-9.210
0.142,12.184,3.726,3.726,69.353,-54.431,-9.334
0.144,12.314,3.716,3.716,69.271,-54.374,-9.416
0.145,12.394,3.700,3.700,69.210,-54.341,-9.457
0.146,12.439,3.681,3.681,69.168,-54.330,-9.465
0.148,12.471,3.662,3.662,69.141,-54.336,-9.448
0.149,12.514,3.645,3.645,69.126,-54.358,-9.414
0.151,12.568,3.631,3.631,69.121,-54.390,-9.371
0.152,12.628,3.625,3.625,69.123,-54.430,-9.326
0.153,12.687,3.626,3.626,69.127,-54.475,-9.288
0.155,12.738,3.632,3.632,69.132,-54.520,-9.264
0.156,12.781,3.640,3.640,69.135,-54.562,-9.263
0.158,12.827,3.649,3.649,69.132,-54.598,-9.291
0.159,12.900,3.655,3.655,69.120,-54.625,-9.358
0.160,13.015,3.657,3.657,69.097,-54.638,-9.470
0.162,13.184,3.651,3.651,69.060,-54.635,-9.635
0.163,13.406,3.638,3.638,69.009,-54.617,-9.850
0.165,13.672,3.623,3.622,68.948,-54.584,-10.107
0.166,13.975,3.610,3.610,68.880,-54.539,-10.399
0.167,14.307,3.608,3.608,68.807,-54.484,-10.718
0.169,14.659,3.622,3.621,68.733,-54.420,-11.056
0.170,15.024,3.657,3.657,68.659,-54.350,-11.406
0.172,15.392,3.720,3.720,68.590,-54.275,-11.760
0.173,15.758,3.816,3.816,68.527,-54.197,-12.112
0.174,16.111,3.938,3.939,68.473,-54.118,-12.452
0.176,16.444,4.078,4.079,68.432,-54.040,-12.773
0.177,16.750,4.227,4.228,68.406,-53.965,-13.069
0.179,17.021,4.375,4.376,68.398,-53.895,-13.331
0.180,17.253,4.513,4.514,68.410,-53.831,-13.553
0.181,17.447,4.633,4.633,68.438,-53.774,-13.737
0.183,17.608,4.725,4.724,68.477,-53.726,-13.885
0.184,17.740,4.787,4.786,68.521,-53.687,-14.002
0.185,17.843,4.825,4.823,68.566,-53.657,-14.091
0.187,17.921,4.839,4.837,68.606,-53.638,-14.154
0.188,17.973,4.836,4.833,68.636,-53.630,-14.196
0.190,18.001,4.817,4.814,68.652,-53.635,-14.219
0.191,18.021,4.786,4.785,68.647,-53.653,-14.227
0.192,18.064,4.747,4.748,68.617,-53.684,-14.222
0.194,18.141,4.703,4.707,68.557,-53.731,-14.209
0.195,18.257,4.657,4.664,68.461,-53.792,-14.191
0.197,18.415,4.612,4.621,68.325,-53.870,-14.171
0.198,18.619,4.572,4.582,68.145,-53.964,-14.151
0.199,18.861,4.540,4.549,67.929,-54.072,-14.132
0.201,19.136,4.518,4.524,67.682,-54.191,-14.114
0.202,19.435,4.510,4.509,67.412,-54.319,-14.097
0.204,19.751,4.518,4.506,67.126,-54.452,-14.081
0.205,20.077,4.537,4.514,66.830,-54.588,-14.067
0.206,20.406,4.564,4.531,66.532,-54.725,-14.055
0.208,20.729,4.595,4.556,66.237,-54.859,-14.044
0.209,21.041,4.624,4.587,65.954,-54.989,-14.035
0.211,21.333,4.648,4.622,65.689,-55.110,-14.027
0.212,21.597,4.663,4.661,65.449,-55.221,-14.022
0.213,21.828,4.666,4.700,65.240,-55.319,-14.020
0.215,22.017,4.657,4.739,65.070,-55.401,-14.019
0.216,22.161,4.642,4.776,64.941,-55.466,-14.021
0.218,22.265,4.624,4.809,64.849,-55.516,-14.024
0.219,22.333,4.605,4.837,64.791,-55.550,-14.029
0.220,22.369,4.591,4.857,64.762,-55.571,-14.034
0.222,22.380,4.585,4.868,64.759,-55.580,-14.039
0.223,22.398,4.589,4.869,64.777,-55.577,-14.044
0.225,22.435,4.604,4.860,64.812,-55.564,-14.047
0.226,22.488,4.627,4.844,64.860,-55.543,-14.048
0.227,22.552,4.655,4.824,64.917,-55.514,-14.048
0.229,22.623,4.685,4.801,64.979,-55.479,-14.044
0.230,22.698,4.714,4.779,65.042,-55.439,-14.037
0.232,22.773,4.740,4.761,65.101,-55.395,-14.026
0.233,22.845,4.760,4.748,65.154,-55.347,-14.010
0.234,22.913,4.772,4.741,65.197,-55.299,-13.990
0.236,22.975,4.779,4.740,65.232,-55.253,-13.968
0.237,23.030,4.780,4.742,65.258,-55.209,-13.946
0.238,23.077,4.777,4.747,65.276,-55.172,-13.925
0.240,23.113,4.772,4.752,65.285,-55.142,-13.907
0.241,23.136,4.765,4.757,65.287,-55.123,-13.893
0.243,23.148,4.759,4.760,65.280,-55.117,-13.886
0.244,23.164,4.752,4.760,65.266,-55.125,-13.887
0.245,23.199,4.747,4.757,65.244,-55.150,-13.898
0.247,23.256,4.741,4.752,65.216,-55.194,-13.920
0.248,23.339,4.736,4.745,65.180,-55.260,-13.955
0.250,23.451,4.730,4.737,65.137,-55.350,-14.005
0.251,23.592,4.725,4.728,65.087,-55.465,-14.072
0.252,23.763,4.718,4.718,65.032,-55.604,-14.153
0.254,23.956,4.711,4.709,64.973,-55.762,-14.247
0.255,24.168,4.704,4.701,64.910,-55.936,-14.350
0.257,24.393,4.698,4.695,64.846,-56.121,-14.461
0.258,24.627,4.694,4.691,64.781,-56.314,-14.576
0.259,24.864,4.692,4.689,64.716,-56.510,-14.692
0.261,25.100,4.693,4.692,64.654,-56.706,-14.808
0.262,25.329,4.699,4.699,64.596,-56.897,-14.920
0.264,25.547,4.709,4.710,64.542,-57.080,-15.026
0.265,25.749,4.724,4.726,64.493,-57.250,-15.123
0.266,25.929,4.741,4.744,64.453,-57.403,-15.209
0.268,26.083,4.760,4.763,64.420,-57.536,-15.280
0.269,26.208,4.777,4.780,64.398,-57.645,-15.335
0.271,26.304,4.792,4.795,64.383,-57.732,-15.376
0.272,26.378,4.803,4.804,64.375,-57.800,-15.403
0.273,26.432,4.809,4.808,64.372,-57.851,-15.420
0.275,26.470,4.809,4.805,64.371,-57.888,-15.427
0.276,26.496,4.805,4.798,64.372,-57.914,-15.429
0.278,26.514,4.800,4.790,64.372,-57.932,-15.426
0.279,26.528,4.794,4.784,64.369,-57.945,-15.421
0.280,26.541,4.791,4.782,64.362,-57.955,-15.415
0.282,26.558,4.791,4.786,64.350,-57.965,-15.412
0.283,26.583,4.797,4.799,64.329,-57.979,-15.412
0.285,26.619,4.810,4.823,64.299,-57.998,-15.419
0.286,26.671,4.829,4.854,64.258,-58.026,-15.434
0.287,26.741,4.851,4.891,64.204,-58.064,-15.458
0.289,26.828,4.876,4.930,64.140,-58.111,-15.492
0.290,26.928,4.903,4.969,64.067,-58.167,-15.533
0.291,27.040,4.929,5.005,63.987,-58.229,-15.581
0.293,27.161,4.953,5.036,63.902,-58.296,-15.634
0.294,27.288,4.975,5.059,63.814,-58.366,-15.692
0.296,27.418,4.993,5.074,63.725,-58.439,-15.754
0.297,27.549,5.007,5.083,63.637,-58.512,-15.818
0.298,27.679,5.018,5.085,63.551,-58.585,-15.883
0.300,27.804,5.024,5.082,63.471,-58.655,-15.948
0.301,27.923,5.026,5.073,63.396,-58.722,-16.012
0.303,28.033,5.023,5.060,63.330,-58.783,-16.075
0.304,28.131,5.015,5.044,63.275,-58.838,-16.134
0.305,28.216,5.003,5.025,63.231,-58.886,-16.190
0.307,28.291,4.989,5.004,63.196,-58.927,-16.242
0.308,28.356,4.973,4.983,63.170,-58.962,-16.290
0.310,28.413,4.956,4.962,63.152,-58.992,-16.336
0.311,28.464,4.941,4.944,63.140,-59.017,-16.377
0.312,28.509,4.928,4.929,63.132,-59.038,-16.416
0.314,28.549,4.919,4.918,63.129,-59.057,-16.452
0.315,28.585,4.914,4.912,63.127,-59.072,-16.485
0.317,28.618,4.911,4.909,63.127,-59.086,-16.514
0.318,28.648,4.910,4.908,63.127,-59.099,-16.542
0.319,28.676,4.909,4.908,63.125,-59.112,-16.566
0.321,28.702,4.909,4.908,63.120,-59.125,-16.588
0.322,28.728,4.906,4.906,63.112,-59.138,-16.608
0.324,28.755,4.901,4.901,63.099,-59.154,-16.626
0.325,28.785,4.893,4.893,63.083,-59.172,-16.643
0.326,28.819,4.883,4.883,63.063,-59.194,-16.661
0.328,28.859,4.871,4.871,63.040,-59.221,-16.679
0.329,28.905,4.859,4.859,63.015,-59.254,-16.700
0.331,28.958,4.847,4.848,62.988,-59.293,-16.724
0.332,29.019,4.837,4.837,62.960,-59.339,-16.751
0.333,29.090,4.829,4.829,62.930,-59.395,-16.784
0.335,29.171,4.824,4.824,62.900,-59.459,-16.822
0.336,29.264,4.822,4.822,62.870,-59.534,-16.868
0.338,29.370,4.822,4.822,62.840,-59.621,-16.921
0.339,29.490,4.823,4.823,62.811,-59.720,-16.983
0.340,29.626,4.825,4.825,62.783,-59.832,-17.055
0.342,29.776,4.828,4.828,62.756,-59.955,-17.137
0.343,29.939,4.830,4.830,62.729,-60.088,-17.226
0.344,30.111,4.831,4.831,62.702,-60.228,-17.323
0.346,30.290,4.831,4.831,62.674,-60.371,-17.427
0.347,30.474,4.830,4.830,62.644,-60.516,-17.536
0.349,30.660,4.827,4.827,62.611,-60.661,-17.650
0.350,30.847,4.824,4.824,62.576,-60.801,-17.767
0.351,31.031,4.819,4.819,62.537,-60.936,-17.886
0.353,31.211,4.813,4.813,62.493,-61.062,-18.008
0.354,31.386,4.806,4.806,62.445,-61.177,-18.129
0.356,31.553,4.798,4.798,62.390,-61.278,-18.251
0.357,31.712,4.790,4.790,62.330,-61.363,-18.371
0.358,31.864,4.783,4.783,62.262,-61.431,-18.489
0.360,32.011,4.777,4.777,62.188,-61.481,-18.605
0.361,32.155,4.773,4.773,62.108,-61.519,-18.718
0.363,32.298,4.773,4.773,62.022,-61.545,-18.830
0.364,32.441,4.776,4.776,61.932,-61.563,-18.940
0.365,32.585,4.783,4.783,61.837,-61.576,-19.047
0.367,32.730,4.794,4.794,61.739,-61.586,-19.154
0.368,32.875,4.806,4.806,61.638,-61.597,-19.258
0.370,33.022,4.819,4.819,61.535,-61.610,-19.361
0.371,33.170,4.832,4.832,61.430,-61.629,-19.463
0.372,33.319,4.843,4.843,61.324,-61.657,-19.564
0.374,33.470,4.853,4.853,61.217,-61.695,-19.663
0.375,33.624,4.859,4.859,61.110,-61.748,-19.762
0.377,33.784,4.864,4.864,61.004,-61.816,-19.859
0.378,33.947,4.868,4.868,60.899,-61.897,-19.955
0.379,34.113,4.874,4.874,60.797,-61.989,-20.047
0.381,34.280,4.882,4.882,60.697,-62.090,-20.136
0.382,34.446,4.895,4.895,60.602,-62.197,-20.220
0.384,34.608,4.913,4.913,60.511,-62.307,-20.298
0.385,34.765,4.938,4.938,60.426,-62.417,-20.370
0.386,34.914,4.969,4.969,60.348,-62.526,-20.434
0.388,35.052,5.004,5.004,60.276,-62.631,-20.489
0.389,35.178,5.040,5.040,60.212,-62.729,-20.535
0.391,35.288,5.075,5.076,60.158,-62.818,-20.570
0.392,35.380,5.108,5.109,60.113,-62.894,-20.594
0.393,35.452,5.137,5.137,60.078,-62.957,-20.606
0.395,35.505,5.158,5.158,60.054,-63.004,-20.605
0.396,35.544,5.173,5.172,60.038,-63.038,-20.595
0.397,35.574,5.181,5.180,60.030,-63.062,-20.580
0.399,35.598,5.185,5.184,60.026,-63.076,-20.560
0.400,35.620,5.186,5.185,60.026,-63.085,-20.540
0.402,35.638,5.186,5.184,60.028,-63.090,-20.523
0.403,35.650,5.184,5.184,60.030,-63.093,-20.511
0.404,35.655,5.184,5.184,60.030,-63.096,-20.508
0.406,35.666,5.186,5.188,60.027,-63.102,-20.515
0.407,35.692,5.190,5.194,60.018,-63.114,-20.537
0.409,35.737,5.198,5.203,60.003,-63.133,-20.575
0.410,35.807,5.210,5.216,59.979,-63.161,-20.634
0.411,35.904,5.228,5.234,59.944,-63.202,-20.715
0.413,36.028,5.251,5.255,59.899,-63.254,-20.819
0.414,36.175,5.281,5.281,59.846,-63.317,-20.941
0.416,36.341,5.318,5.312,59.786,-63.387,-21.077
0.417,36.520,5.361,5.347,59.720,-63.465,-21.225
0.418,36.708,5.406,5.386,59.652,-63.546,-21.380
0.420,36.900,5.451,5.428,59.582,-63.630,-21.539
0.421,37.093,5.495,5.473,59.512,-63.715,-21.697
0.423,37.281,5.535,5.519,59.444,-63.799,-21.851
0.424,37.460,5.569,5.566,59.380,-63.879,-21.997
0.425,37.625,5.595,5.613,59.322,-63.955,-22.132
0.427,37.772,5.613,5.659,59.271,-64.023,-22.252
0.428,37.896,5.625,5.704,59.229,-64.082,-22.352
0.430,37.993,5.632,5.745,59.198,-64.131,-22.430
0.431,38.064,5.637,5.782,59.177,-64.169,-22.486
0.432,38.113,5.640,5.813,59.164,-64.198,-22.524
0.434,38.144,5.644,5.838,59.157,-64.219,-22.546
0.435,38.161,5.648,5.855,59.155,-64.231,-22.556
0.437,38.167,5.655,5.864,59.155,-64.238,-22.557
0.438,38.173,5.663,5.866,59.156,-64.240,-22.551
0.439,38.182,5.671,5.862,59.155,-64.237,-22.542
0.441,38.193,5.678,5.852,59.151,-64.231,-22.534
0.442,38.206,5.685,5.837,59.143,-64.223,-22.528
0.444,38.224,5.689,5.817,59.127,-64.215,-22.529
0.445,38.252,5.691,5.795,59.103,-64.206,-22.539
0.446,38.294,5.690,5.770,59.068,-64.198,-22.562
0.448,38.355,5.689,5.746,59.020,-64.193,-22.599
0.449,38.433,5.688,5.725,58.961,-64.192,-22.651
0.450,38.527,5.689,5.709,58.892,-64.195,-22.714
0.452,38.634,5.694,5.702,58.815,-64.204,-22.788
0.453,38.753,5.704,5.706,58.729,-64.219,-22.869
0.455,38.882,5.722,5.722,58.638,-64.243,-22.957
0.456,39.019,5.748,5.753,58.542,-64.277,-23.049
0.457,39.162,5.780,5.796,58.443,-64.321,-23.142
0.459,39.311,5.816,5.846,58.342,-64.377,-23.236
0.460,39.464,5.855,5.900,58.240,-64.446,-23.327
0.462,39.621,5.894,5.953,58.139,-64.529,-23.415
0.463,39.783,5.932,6.002,58.041,-64.628,-23.496
0.464,39.950,5.965,6.043,57.946,-64.743,-23.570
0.466,40.122,5.994,6.073,57.855,-64.875,-23.634
0.467,40.300,6.017,6.092,57.770,-65.021,-23.690
0.469,40.483,6.037,6.103,57.689,-65.178,-23.737
0.470,40.669,6.053,6.109,57.613,-65.343,-23.776
0.471,40.855,6.069,6.112,57.543,-65.513,-23.809
0.473,41.041,6.084,6.115,57.478,-65.684,-23.836
0.474,41.222,6.099,6.119,57.419,-65.854,-23.858
0.476,41.397,6.117,6.128,57.365,-66.020,-23.875
0.477,41.562,6.137,6.142,57.317,-66.177,-23.888
0.478,41.715,6.157,6.158,57.274,-66.324,-23.898
0.480,41.853,6.178,6.177,57.238,-66.457,-23.906
0.481,41.973,6.197,6.196,57.207,-66.572,-23.913
0.483,42.071,6.215,6.214,57.183,-66.668,-23.919
0.484,42.147,6.230,6.229,57.165,-66.741,-23.924
0.485,42.203,6.241,6.241,57.152,-66.796,-23.929
0.487,42.242,6.247,6.248,57.143,-66.833,-23.933
0.488,42.265,6.251,6.252,57.139,-66.855,-23.937
0.490,42.274,6.252,6.253,57.138,-66.864,-23.940
0.491,42.277,6.251,6.252,57.139,-66.863,-23.941
0.492,42.286,6.249,6.249,57.142,-66.855,-23.942
0.494,42.302,6.246,6.246,57.147,-66.840,-23.941
0.495,42.321,6.244,6.244,57.152,-66.822,-23.938
0.497,42.341,6.243,6.243,57.157,-66.802,-23.934
0.498,42.361,6.243,6.243,57.161,-66.784,-23.929
0.499,42.378,6.243,6.243,57.163,-66.769,-23.921
0.501,42.391,6.245,6.245,57.164,-66.760,-23.911
0.502,42.403,6.247,6.247,57.162,-66.757,-23.900
0.503,42.417,6.251,6.250,57.157,-66.761,-23.887
0.505,42.435,6.254,6.254,57.150,-66.772,-23.874
0.506,42.458,6.259,6.259,57.140,-66.788,-23.862
0.508,42.486,6.263,6.263,57.128,-66.811,-23.850
0.509,42.519,6.267,6.267,57.113,-66.840,-23.841
0.510,42.558,6.270,6.270,57.096,-66.874,-23.834
0.512,42.603,6.271,6.271,57.077,-66.913,-23.831
0.513,42.653,6.269,6.269,57.055,-66.958,-23.831
0.515,42.709,6.264,6.264,57.030,-67.009,-23.837
0.516,42.771,6.255,6.255,57.004,-67.064,-23.848
0.517,42.840,6.243,6.243,56.974,-67.124,-23.865
0.519,42.916,6.229,6.229,56.943,-67.188,-23.889
0.520,42.999,6.214,6.214,56.909,-67.258,-23.920
0.522,43.090,6.201,6.201,56.873,-67.333,-23.956
0.523,43.188,6.190,6.190,56.836,-67.413,-23.998
0.524,43.293,6.183,6.183,56.796,-67.500,-24.042
0.526,43.406,6.182,6.182,56.755,-67.594,-24.090
0.527,43.526,6.186,6.186,56.713,-67.695,-24.140
0.529,43.654,6.194,6.195,56.669,-67.804,-24.190
0.530,43.789,6.206,6.206,56.625,-67.921,-24.240
0.531,43.931,6.219,6.219,56.579,-68.046,-24.289
0.533,44.081,6.232,6.232,56.533,-68.181,-24.337
0.534,44.239,6.244,6.245,56.486,-68.325,-24.381
0.536,44.405,6.254,6.254,56.439,-68.479,-24.422
0.537,44.579,6.261,6.260,56.392,-68.643,-24.458
0.538,44.760,6.265,6.264,56.346,-68.815,-24.489
0.540,44.944,6.267,6.266,56.301,-68.992,-24.515
0.541,45.129,6.267,6.266,56.259,-69.170,-24.536
0.543,45.311,6.268,6.267,56.220,-69.347,-24.553
0.544,45.488,6.268,6.269,56.185,-69.520,-24.566
0.545,45.656,6.270,6.272,56.156,-69.686,-24.573
0.547,45.814,6.273,6.278,56.133,-69.842,-24.577
0.548,45.957,6.277,6.286,56.117,-69.984,-24.576
0.550,46.083,6.281,6.296,56.109,-70.109,-24.570
0.551,46.189,6.284,6.308,56.109,-70.216,-24.561
0.552,46.275,6.286,6.322,56.120,-70.300,-24.547
0.554,46.340,6.285,6.338,56.141,-70.358,-24.529
0.555,46.390,6.281,6.354,56.173,-70.390,-24.507
0.556,46.437,6.273,6.371,56.212,-70.400,-24.483
0.558,46.486,6.260,6.388,56.254,-70.392,-24.459
0.559,46.537,6.244,6.402,56.295,-70.373,-24.434
0.561,46.585,6.225,6.411,56.329,-70.348,-24.413
0.562,46.625,6.202,6.413,56.355,-70.322,-24.394
0.563,46.653,6.178,6.407,56.366,-70.300,-24.382
0.565,46.668,6.152,6.389,56.359,-70.289,-24.376
0.566,46.697,6.125,6.359,56.330,-70.292,-24.378
0.568,46.759,6.097,6.315,56.275,-70.316,-24.391
0.569,46.861,6.067,6.260,56.189,-70.367,-24.415
0.570,47.012,6.035,6.196,56.068,-70.448,-24.451
0.572,47.217,5.999,6.126,55.908,-70.566,-24.503
0.573,47.479,5.960,6.051,55.709,-70.723,-24.569
0.575,47.791,5.915,5.974,55.475,-70.915,-24.648
0.576,48.145,5.866,5.897,55.215,-71.137,-24.737
0.577,48.532,5.810,5.822,54.933,-71.384,-24.835
0.579,48.945,5.749,5.748,54.637,-71.653,-24.938
0.580,49.376,5.684,5.675,54.332,-71.939,-25.044
0.582,49.817,5.615,5.604,54.025,-72.236,-25.151
0.583,50.259,5.544,5.534,53.723,-72.541,-25.257
0.584,50.696,5.470,5.464,53.431,-72.849,-25.360
