"T","Distance","Radius","FreeRadius","X","Y","Z"
0.000,0.000,1.868,1.868,231.500,230.630,241.006
0.001,0.059,1.892,1.892,231.485,230.575,240.989
0.002,0.118,1.916,1.916,231.469,230.521,240.972
0.003,0.177,1.941,1.941,231.450,230.469,240.954
0.005,0.235,1.965,1.965,231.427,230.419,240.935
0.006,0.293,1.990,1.990,231.399,230.372,240.915
0.007,0.352,2.016,2.016,231.365,230.329,240.893
0.008,0.413,2.042,2.042,231.324,230.291,240.869
0.009,0.478,2.069,2.069,231.273,230.258,240.844
0.010,0.550,2.097,2.097,231.213,230.231,240.816
0.011,0.630,2.126,2.126,231.141,230.212,240.785
0.012,0.722,2.157,2.157,231.057,230.200,240.751
0.014,0.827,2.190,2.190,230.959,230.197,240.714
0.015,0.948,2.226,2.226,230.846,230.203,240.673
0.016,1.085,2.265,2.265,230.716,230.220,240.629
0.017,1.240,2.307,2.307,230.572,230.246,240.580
0.018,1.409,2.355,2.355,230.414,230.280,240.529
0.019,1.589,2.407,2.407,230.247,230.320,240.476
0.020,1.778,2.464,2.464,230.072,230.366,240.422
0.022,1.973,2.527,2.527,229.892,230.416,240.367
0.023,2.170,2.595,2.595,229.709,230.469,240.313
0.024,2.368,2.666,2.666,229.527,230.523,240.260
0.025,2.563,2.739,2.739,229.347,230.576,240.208
0.026,2.752,2.813,2.813,229.172,230.628,240.159
0.027,2.932,2.886,2.886,229.004,230.677,240.114
0.028,3.101,2.957,2.957,228.847,230.721,240.073
0.029,3.255,3.026,3.026,228.702,230.759,240.037
0.031,3.392,3.090,3.090,228.572,230.790,240.007
0.032,3.510,3.149,3.149,228.458,230.813,239.983
0.033,3.611,3.202,3.202,228.361,230.829,239.964
0.034,3.696,3.250,3.250,228.277,230.839,239.952
0.035,3.766,3.291,3.291,228.207,230.843,239.944
0.036,3.824,3.325,3.325,228.149,230.843,239.941
0.037,3.871,3.353,3.353,228.102,230.839,239.943
0.039,3.910,3.372,3.372,228.065,230.833,239.948
0.040,3.940,3.384,3.384,228.037,230.825,239.958
0.041,3.966,3.388,3.388,228.016,230.816,239.970
0.042,3.989,3.384,3.384,228.002,230.807,239.985
0.043,4.010,3.374,3.374,227.993,230.799,240.003
0.044,4.031,3.359,3.359,227.989,230.793,240.023
0.045,4.053,3.340,3.340,227.987,230.789,240.045
0.046,4.077,3.320,3.320,227.988,230.789,240.068
0.048,4.102,3.300,3.300,227.990,230.791,240.093
0.049,4.129,3.280,3.280,227.993,230.793,240.120
0.050,4.160,3.264,3.264,227.995,230.793,240.151
0.051,4.195,3.252,3.252,227.997,230.788,240.185
0.052,4.235,3.244,3.244,227.997,230.778,240.224
0.053,4.282,3.239,3.239,227.996,230.760,240.267
0.054,4.339,3.234,3.234,227.991,230.731,240.317
0.056,4.408,3.228,3.228,227.983,230.691,240.372
0.057,4.491,3.218,3.218,227.971,230.637,240.434
0.058,4.591,3.204,3.204,227.954,230.566,240.503
0.059,4.710,3.183,3.183,227.931,230.478,240.580
0.060,4.851,3.153,3.153,227.902,230.370,240.666
0.061,5.016,3.113,3.113,227.866,230.240,240.761
0.062,5.204,3.063,3.063,227.824,230.089,240.864
0.063,5.412,3.006,3.006,227.776,229.920,240.975
0.065,5.636,2.946,2.946,227.723,229.736,241.092
0.066,5.874,2.886,2.886,227.667,229.539,241.213
0.067,6.122,2.828,2.828,227.609,229.332,241.337
0.068,6.377,2.776,2.776,227.550,229.119,241.464
0.069,6.635,2.733,2.733,227.490,228.903,241.591
0.070,6.893,2.703,2.703,227.431,228.686,241.717
0.071,7.148,2.687,2.687,227.374,228.471,241.841
0.073,7.395,2.686,2.686,227.320,228.261,241.962
0.074,7.633,2.699,2.699,227.270,228.060,242.077
0.075,7.857,2.722,2.722,227.226,227.870,242.186
0.076,8.064,2.754,2.754,227.187,227.693,242.288
0.077,8.252,2.793,2.793,227.156,227.533,242.381
0.078,8.421,2.835,2.835,227.131,227.388,242.466
0.079,8.574,2.881,2.881,227.111,227.258,242.543
0.080,8.709,2.926,2.926,227.098,227.143,242.612
0.082,8.829,2.970,2.970,227.088,227.041,242.674
0.083,8.934,3.011,3.011,227.084,226.951,242.730
0.084,9.026,3.049,3.049,227.083,226.873,242.778
0.085,9.105,3.084,3.084,227.085,226.807,242.821
0.086,9.172,3.116,3.116,227.090,226.751,242.858
0.087,9.228,3.143,3.143,227.096,226.706,242.889
0.088,9.274,3.167,3.167,227.105,226.669,242.916
0.090,9.311,3.186,3.186,227.114,226.640,242.938
0.091,9.340,3.201,3.201,227.124,226.620,242.955
0.092,9.361,3.211,3.211,227.133,226.606,242.969
0.093,9.377,3.216,3.216,227.142,226.598,242.979
0.094,9.388,3.218,3.218,227.150,226.596,242.987
0.095,9.397,3.216,3.216,227.155,226.598,242.994
0.096,9.405,3.212,3.212,227.157,226.603,242.999
0.098,9.416,3.205,3.205,227.156,226.611,243.005
0.099,9.429,3.198,3.198,227.151,226.622,243.012
0.100,9.446,3.189,3.189,227.141,226.633,243.021
0.101,9.468,3.179,3.179,227.126,226.644,243.032
0.102,9.496,3.170,3.170,227.105,226.654,243.047
0.103,9.532,3.162,3.162,227.076,226.663,243.066
0.104,9.576,3.153,3.153,227.040,226.670,243.091
0.105,9.629,3.145,3.145,226.996,226.673,243.121
0.107,9.694,3.138,3.138,226.943,226.672,243.158
0.108,9.769,3.131,3.131,226.882,226.667,243.202
0.109,9.854,3.124,3.124,226.814,226.658,243.251
0.110,9.947,3.118,3.118,226.739,226.646,243.306
0.111,10.046,3.113,3.113,226.660,226.631,243.363
0.112,10.149,3.109,3.109,226.579,226.614,243.424
0.113,10.255,3.105,3.105,226.495,226.595,243.486
0.115,10.361,3.101,3.101,226.411,226.576,243.549
0.116,10.467,3.099,3.099,226.329,226.556,243.611
0.117,10.569,3.097,3.097,226.248,226.536,243.671
0.118,10.667,3.096,3.096,226.172,226.516,243.729
0.119,10.758,3.095,3.095,226.101,226.498,243.784
0.120,10.841,3.094,3.094,226.037,226.482,243.833
0.121,10.914,3.095,3.095,225.980,226.468,243.877
0.122,10.975,3.095,3.095,225.933,226.456,243.915
0.124,11.026,3.097,3.097,225.894,226.447,243.946
0.125,11.066,3.098,3.098,225.863,226.441,243.971
0.126,11.097,3.099,3.099,225.840,226.436,243.991
0.127,11.119,3.100,3.100,225.823,226.433,244.005
0.128,11.134,3.102,3.102,225.813,226.431,244.015
0.129,11.141,3.102,3.102,225.808,226.431,244.020
0.130,11.143,3.102,3.102,225.808,226.432,244.022
0.132,11.148,3.102,3.102,225.813,226.434,244.020
0.133,11.158,3.100,3.100,225.821,226.435,244.014
0.134,11.172,3.098,3.098,225.833,226.438,244.006
0.135,11.190,3.096,3.096,225.847,226.440,243.995
0.136,11.211,3.093,3.093,225.863,226.442,243.982
0.137,11.233,3.091,3.091,225.880,226.443,243.968
0.138,11.257,3.088,3.088,225.898,226.443,243.952
0.139,11.280,3.086,3.086,225.915,226.444,243.937
0.141,11.300,3.085,3.085,225.930,226.443,243.923
0.142,11.317,3.084,3.084,225.942,226.443,243.911
0.143,11.329,3.084,3.084,225.950,226.443,243.903
0.144,11.334,3.085,3.085,225.953,226.442,243.898
0.145,11.338,3.086,3.086,225.950,226.441,243.899
0.146,11.351,3.088,3.088,225.939,226.441,243.906
0.147,11.375,3.090,3.090,225.920,226.441,243.921
0.149,11.411,3.092,3.092,225.891,226.441,243.944
0.150,11.462,3.094,3.094,225.852,226.442,243.976
0.151,11.529,3.096,3.096,225.801,226.444,244.019
0.152,11.613,3.098,3.098,225.737,226.446,244.073
0.153,11.714,3.099,3.099,225.660,226.449,244.138
0.154,11.830,3.101,3.101,225.571,226.452,244.214
0.155,11.960,3.105,3.105,225.474,226.455,244.299
0.156,12.100,3.109,3.109,225.368,226.459,244.391
0.158,12.249,3.117,3.117,225.257,226.463,244.490
0.159,12.404,3.127,3.127,225.141,226.466,244.594
0.160,12.564,3.141,3.141,225.023,226.469,244.701
0.161,12.726,3.160,3.160,224.904,226.471,244.811
0.162,12.888,3.183,3.183,224.785,226.473,244.922
0.163,13.048,3.211,3.211,224.669,226.473,245.032
0.164,13.204,3.243,3.243,224.558,226.472,245.141
0.166,13.354,3.278,3.278,224.453,226.470,245.247
0.167,13.495,3.315,3.315,224.355,226.466,245.349
0.168,13.626,3.353,3.353,224.267,226.460,245.446
0.169,13.747,3.390,3.390,224.187,226.453,245.538
0.170,13.860,3.427,3.427,224.116,226.446,245.624
0.171,13.963,3.461,3.461,224.053,226.438,245.706
0.172,14.059,3.492,3.492,223.997,226.430,245.784
0.173,14.148,3.520,3.520,223.948,226.423,245.857
0.175,14.230,3.544,3.544,223.905,226.418,245.926
0.176,14.306,3.565,3.565,223.867,226.415,245.992
0.177,14.377,3.583,3.583,223.834,226.414,246.055
0.178,14.443,3.598,3.598,223.805,226.416,246.115
0.179,14.506,3.609,3.609,223.780,226.422,246.172
0.180,14.566,3.618,3.618,223.759,226.432,246.227
0.181,14.623,3.624,3.624,223.739,226.447,246.279
0.183,14.680,3.627,3.627,223.722,226.466,246.330
0.184,14.737,3.627,3.627,223.706,226.491,246.379
0.185,14.794,3.626,3.626,223.691,226.518,246.426
0.186,14.852,3.624,3.624,223.674,226.548,246.472
0.187,14.909,3.621,3.621,223.656,226.580,246.516
0.188,14.966,3.618,3.618,223.636,226.611,246.560
0.189,15.022,3.615,3.615,223.612,226.640,246.602
0.190,15.079,3.614,3.614,223.584,226.667,246.642
0.192,15.136,3.614,3.614,223.551,226.691,246.682
0.193,15.194,3.616,3.616,223.511,226.710,246.721
0.194,15.256,3.621,3.621,223.465,226.722,246.759
0.195,15.322,3.627,3.627,223.410,226.727,246.796
0.196,15.395,3.635,3.635,223.346,226.724,246.833
0.197,15.478,3.644,3.644,223.273,226.711,246.869
0.198,15.571,3.654,3.654,223.190,226.689,246.904
0.200,15.674,3.664,3.664,223.099,226.657,246.939
0.201,15.784,3.674,3.674,223.001,226.618,246.972
0.202,15.900,3.684,3.684,222.900,226.573,247.005
0.203,16.019,3.694,3.694,222.796,226.524,247.036
0.204,16.139,3.703,3.703,222.692,226.471,247.065
0.205,16.259,3.711,3.711,222.589,226.416,247.093
0.206,16.375,3.719,3.719,222.490,226.361,247.118
0.207,16.485,3.725,3.725,222.397,226.306,247.142
0.209,16.588,3.729,3.729,222.311,226.254,247.163
0.210,16.681,3.733,3.733,222.234,226.206,247.181
0.211,16.761,3.734,3.734,222.169,226.162,247.196
0.212,16.826,3.735,3.735,222.117,226.125,247.209
0.213,16.874,3.733,3.733,222.080,226.095,247.218
0.214,16.908,3.729,3.729,222.056,226.072,247.224
0.215,16.929,3.725,3.725,222.043,226.056,247.228
0.217,16.940,3.720,3.720,222.039,226.046,247.229
0.218,16.947,3.715,3.715,222.041,226.040,247.230
0.219,16.954,3.709,3.709,222.048,226.039,247.229
0.220,16.964,3.704,3.704,222.058,226.041,247.227
0.221,16.975,3.700,3.700,222.067,226.046,247.225
0.222,16.985,3.698,3.698,222.075,226.053,247.224
0.223,16.994,3.697,3.697,222.077,226.061,247.223
0.224,17.003,3.697,3.697,222.074,226.070,247.224
0.226,17.019,3.697,3.697,222.061,226.079,247.226
0.227,17.044,3.698,3.698,222.037,226.087,247.230
0.228,17.082,3.698,3.698,222.001,226.093,247.236
0.229,17.134,3.697,3.697,221.950,226.098,247.245
0.230,17.198,3.694,3.694,221.886,226.104,247.256
0.231,17.275,3.689,3.689,221.811,226.110,247.268
0.232,17.363,3.681,3.681,221.724,226.119,247.280
0.234,17.461,3.671,3.671,221.628,226.132,247.293
0.235,17.569,3.657,3.657,221.522,226.150,247.304
0.236,17.687,3.641,3.641,221.407,226.174,247.315
0.237,17.813,3.624,3.624,221.285,226.206,247.323
0.238,17.948,3.606,3.606,221.157,226.247,247.329
0.239,18.092,3.587,3.587,221.023,226.298,247.332
0.240,18.244,3.569,3.569,220.884,226.361,247.331
0.241,18.406,3.551,3.551,220.741,226.436,247.326
0.243,18.577,3.535,3.535,220.595,226.526,247.315
0.244,18.759,3.520,3.520,220.447,226.630,247.300
0.245,18.951,3.508,3.508,220.296,226.746,247.280
0.246,19.151,3.501,3.501,220.143,226.874,247.257
0.247,19.360,3.498,3.498,219.987,227.010,247.233
0.248,19.575,3.502,3.502,219.828,227.152,247.207
0.249,19.795,3.512,3.512,219.666,227.300,247.183
0.251,20.019,3.530,3.530,219.501,227.449,247.159
0.252,20.246,3.557,3.557,219.332,227.600,247.138
0.253,20.475,3.595,3.595,219.160,227.749,247.121
0.254,20.703,3.642,3.642,218.984,227.894,247.109
0.255,20.931,3.699,3.699,218.804,228.034,247.103
0.256,21.158,3.765,3.765,218.620,228.167,247.105
0.257,21.383,3.838,3.838,218.432,228.290,247.114
0.259,21.606,3.918,3.918,218.240,228.402,247.133
0.260,21.827,4.004,4.004,218.045,228.502,247.161
0.261,22.046,4.094,4.094,217.848,228.593,247.196
0.262,22.262,4.188,4.188,217.653,228.676,247.237
0.263,22.474,4.285,4.285,217.461,228.751,247.284
0.264,22.681,4.383,4.383,217.273,228.821,247.335
0.265,22.880,4.481,4.481,217.092,228.885,247.388
0.266,23.071,4.577,4.577,216.920,228.946,247.444
0.268,23.252,4.668,4.668,216.758,229.005,247.500
0.269,23.422,4.753,4.753,216.608,229.062,247.555
0.270,23.578,4.830,4.830,216.473,229.119,247.609
0.271,23.720,4.896,4.896,216.354,229.178,247.659
0.272,23.848,4.950,4.950,216.253,229.240,247.706
0.273,23.959,4.990,4.990,216.172,229.305,247.747
0.274,24.058,5.016,5.016,216.110,229.373,247.783
0.276,24.147,5.029,5.029,216.067,229.445,247.813
0.277,24.229,5.031,5.031,216.040,229.518,247.838
0.278,24.306,5.024,5.024,216.027,229.592,247.857
0.279,24.381,5.010,5.010,216.026,229.665,247.872
0.280,24.453,4.991,4.991,216.035,229.736,247.882
0.281,24.524,4.968,4.968,216.051,229.804,247.888
0.282,24.592,4.943,4.943,216.074,229.868,247.890
0.283,24.656,4.918,4.918,216.101,229.927,247.888
0.285,24.716,4.894,4.894,216.130,229.979,247.882
0.286,24.770,4.872,4.872,216.158,230.024,247.873
0.287,24.817,4.852,4.852,216.185,230.060,247.861
0.288,24.855,4.836,4.836,216.207,230.087,247.845
0.289,24.884,4.822,4.822,216.224,230.103,247.828
0.290,24.907,4.813,4.813,216.235,230.110,247.809
0.291,24.927,4.809,4.809,216.242,230.111,247.789
0.293,24.946,4.810,4.810,216.245,230.106,247.772
0.294,24.963,4.816,4.816,216.245,230.099,247.756
0.295,24.978,4.828,4.828,216.243,230.091,247.745
0.296,24.988,4.842,4.842,216.238,230.084,247.738
0.297,24.995,4.858,4.858,216.232,230.080,247.738
0.298,25.005,4.873,4.872,216.226,230.081,247.745
0.299,25.024,4.884,4.884,216.219,230.088,247.761
0.300,25.055,4.892,4.891,216.214,230.105,247.787
0.302,25.102,4.892,4.892,216.210,230.133,247.824
0.303,25.166,4.885,4.884,216.208,230.173,247.874
0.304,25.250,4.866,4.867,216.209,230.228,247.937
0.305,25.353,4.839,4.839,216.213,230.297,248.014
0.306,25.474,4.803,4.803,216.219,230.378,248.103
0.307,25.610,4.760,4.761,216.227,230.469,248.204
0.308,25.759,4.713,4.714,216.236,230.570,248.314
0.310,25.920,4.663,4.664,216.248,230.677,248.433
0.311,26.090,4.612,4.613,216.260,230.789,248.560
0.312,26.267,4.561,4.562,216.273,230.905,248.694
0.313,26.449,4.512,4.512,216.287,231.022,248.833
0.314,26.635,4.466,4.466,216.301,231.139,248.976
0.315,26.822,4.425,4.423,216.314,231.254,249.122
0.316,27.008,4.387,4.385,216.327,231.366,249.271
0.317,27.192,4.353,4.350,216.340,231.472,249.420
0.319,27.371,4.323,4.319,216.351,231.570,249.570
0.320,27.545,4.296,4.292,216.361,231.661,249.718
0.321,27.715,4.273,4.270,216.370,231.743,249.867
0.322,27.882,4.254,4.252,216.378,231.818,250.016
0.323,28.046,4.238,4.237,216.387,231.884,250.166
0.324,28.209,4.225,4.228,216.397,231.943,250.317
0.325,28.371,4.215,4.222,216.407,231.995,250.470
0.327,28.533,4.209,4.218,216.419,232.039,250.626
0.328,28.697,4.205,4.218,216.433,232.076,250.785
0.329,28.863,4.204,4.219,216.449,232.106,250.947
0.330,29.032,4.206,4.221,216.468,232.129,251.114
0.331,29.206,4.210,4.223,216.490,232.146,251.286
0.332,29.385,4.216,4.224,216.516,232.156,251.462
0.333,29.570,4.225,4.225,216.546,232.161,251.645
0.334,29.761,4.235,4.224,216.580,232.159,251.833
0.336,29.958,4.248,4.223,216.617,232.152,252.026
0.337,30.159,4.261,4.224,216.656,232.140,252.223
0.338,30.363,4.275,4.227,216.695,232.125,252.422
0.339,30.567,4.289,4.235,216.733,232.106,252.622
0.340,30.770,4.303,4.249,216.768,232.085,252.821
0.341,30.970,4.317,4.271,216.798,232.062,253.018
0.342,31.167,4.329,4.302,216.823,232.039,253.211
0.344,31.357,4.341,4.344,216.840,232.015,253.400
0.345,31.541,4.351,4.398,216.848,231.992,253.582
0.346,31.718,4.358,4.459,216.846,231.971,253.757
0.347,31.885,4.364,4.524,216.833,231.951,253.922
0.348,32.043,4.367,4.588,216.805,231.935,254.078
0.349,32.193,4.368,4.646,216.764,231.922,254.221
0.350,32.336,4.367,4.696,216.708,231.912,254.352
0.351,32.474,4.363,4.732,216.640,231.905,254.472
0.353,32.607,4.355,4.751,216.563,231.900,254.581
0.354,32.737,4.345,4.747,216.478,231.897,254.678
0.355,32.862,4.332,4.720,216.388,231.894,254.766
0.356,32.984,4.316,4.672,216.294,231.892,254.843
0.357,33.101,4.298,4.610,216.200,231.889,254.911
0.358,33.212,4.280,4.537,216.106,231.884,254.970
0.359,33.316,4.261,4.459,216.015,231.878,255.021
0.361,33.411,4.242,4.380,215.930,231.869,255.063
0.362,33.498,4.224,4.305,215.852,231.857,255.098
0.363,33.573,4.208,4.238,215.783,231.841,255.125
0.364,33.637,4.195,4.185,215.726,231.821,255.146
0.365,33.690,4.184,4.148,215.682,231.796,255.160
0.366,33.735,4.175,4.125,215.649,231.767,255.170
0.367,33.775,4.168,4.112,215.625,231.736,255.177
0.368,33.811,4.161,4.108,215.609,231.704,255.182
0.370,33.845,4.154,4.109,215.598,231.671,255.187
0.371,33.878,4.146,4.113,215.592,231.640,255.192
0.372,33.908,4.137,4.117,215.588,231.611,255.201
0.373,33.937,4.126,4.119,215.585,231.586,255.213
0.374,33.965,4.112,4.115,215.581,231.565,255.231
0.375,33.995,4.095,4.105,215.574,231.549,255.257
0.376,34.032,4.074,4.089,215.562,231.541,255.290
0.378,34.079,4.051,4.067,215.545,231.541,255.334
0.379,34.140,4.024,4.040,215.519,231.550,255.389
0.380,34.218,3.994,4.008,215.485,231.569,255.456
0.381,34.314,3.961,3.972,215.441,231.598,255.537
0.382,34.428,3.924,3.931,215.389,231.635,255.630
0.383,34.558,3.885,3.887,215.330,231.681,255.737
0.384,34.705,3.842,3.840,215.264,231.734,255.858
0.385,34.868,3.797,3.791,215.192,231.793,255.991
0.387,35.046,3.751,3.742,215.115,231.857,256.139
0.388,35.239,3.707,3.694,215.034,231.926,256.300
0.389,35.446,3.665,3.651,214.950,231.998,256.474
0.390,35.667,3.627,3.613,214.863,232.073,256.663
0.391,35.901,3.595,3.583,214.774,232.150,256.865
0.392,36.147,3.571,3.562,214.685,232.228,257.081
0.393,36.407,3.556,3.553,214.595,232.306,257.312
0.395,36.678,3.552,3.557,214.506,232.384,257.556
0.396,36.959,3.559,3.574,214.419,232.460,257.812
0.397,37.247,3.576,3.601,214.333,232.534,258.077
0.398,37.537,3.599,3.637,214.250,232.606,258.345
0.399,37.826,3.629,3.678,214.170,232.675,258.614
0.400,38.109,3.663,3.723,214.094,232.742,258.879
0.401,38.383,3.699,3.768,214.021,232.805,259.136
0.402,38.644,3.737,3.812,213.954,232.864,259.380
0.404,38.888,3.773,3.852,213.892,232.919,259.610
0.405,39.110,3.807,3.886,213.835,232.969,259.819
0.406,39.308,3.838,3.913,213.785,233.014,260.004
0.407,39.476,3.866,3.933,213.742,233.053,260.162
0.408,39.611,3.889,3.947,213.707,233.087,260.288
0.409,39.709,3.909,3.956,213.680,233.115,260.378
0.410,39.769,3.924,3.960,213.661,233.135,260.431
0.412,39.797,3.935,3.959,213.649,233.151,260.452
0.413,39.809,3.942,3.954,213.644,233.160,260.448
0.414,39.833,3.943,3.945,213.643,233.166,260.424
0.415,39.870,3.939,3.933,213.647,233.167,260.387
0.416,39.914,3.932,3.920,213.653,233.165,260.344
0.417,39.959,3.923,3.907,213.661,233.160,260.300
0.418,40.000,3.915,3.898,213.670,233.154,260.261
0.420,40.029,3.910,3.893,213.678,233.146,260.234
0.421,40.043,3.911,3.895,213.684,233.137,260.225
0.422,40.061,3.919,3.907,213.688,233.129,260.239
0.423,40.107,3.938,3.931,213.688,233.121,260.285
0.424,40.189,3.969,3.968,213.683,233.114,260.366
0.425,40.313,4.015,4.021,213.672,233.110,260.490
0.426,40.476,4.073,4.088,213.656,233.107,260.652
0.427,40.673,4.142,4.165,213.636,233.107,260.848
0.429,40.898,4.219,4.251,213.614,233.110,261.072
0.430,41.146,4.301,4.341,213.592,233.116,261.319
0.431,41.410,4.387,4.433,213.571,233.125,261.582
0.432,41.685,4.473,4.524,213.552,233.137,261.856
0.433,41.965,4.557,4.610,213.537,233.153,262.136
0.434,42.246,4.636,4.689,213.528,233.174,262.415
0.435,42.520,4.709,4.759,213.526,233.198,262.689
0.437,42.784,4.774,4.818,213.532,233.227,262.951
0.438,43.032,4.834,4.870,213.549,233.261,263.196
0.439,43.259,4.887,4.914,213.576,233.299,263.418
0.440,43.462,4.935,4.953,213.617,233.343,263.612
0.441,43.641,4.977,4.988,213.671,233.392,263.776
0.442,43.802,5.015,5.019,213.736,233.445,263.912
0.443,43.947,5.048,5.048,213.810,233.502,264.024
0.444,44.082,5.077,5.077,213.892,233.562,264.113
0.446,44.210,5.103,5.106,213.979,233.624,264.184
0.447,44.333,5.125,5.135,214.070,233.687,264.238
0.448,44.453,5.146,5.164,214.163,233.751,264.277
0.449,44.569,5.163,5.192,214.255,233.815,264.306
0.450,44.682,5.180,5.218,214.346,233.879,264.327
0.451,44.789,5.195,5.242,214.433,233.941,264.341
0.452,44.891,5.209,5.264,214.514,234.001,264.353
0.454,44.985,5.223,5.282,214.587,234.058,264.365
0.455,45.070,5.237,5.297,214.651,234.112,264.379
0.456,45.145,5.251,5.307,214.705,234.161,264.398
0.457,45.213,5.266,5.315,214.749,234.207,264.421
0.458,45.275,5.281,5.320,214.785,234.250,264.448
0.459,45.334,5.296,5.324,214.815,234.289,264.480
0.460,45.390,5.310,5.327,214.839,234.326,264.515
0.461,45.447,5.324,5.332,214.860,234.361,264.554
0.463,45.503,5.337,5.338,214.880,234.394,264.596
