"T","Distance","Radius","FreeRadius","X","Y","Z"
0.000,0.000,2.976,2.976,-68.123,-49.762,-0.783
0.001,0.162,3.070,3.070,-68.033,-49.720,-0.656
0.003,0.322,3.162,3.162,-67.942,-49.678,-0.530
0.004,0.480,3.253,3.253,-67.853,-49.637,-0.406
0.005,0.635,3.341,3.341,-67.766,-49.598,-0.284
0.006,0.785,3.426,3.426,-67.680,-49.561,-0.167
0.008,0.930,3.507,3.507,-67.597,-49.525,-0.053
0.009,1.068,3.582,3.582,-67.518,-49.493,0.055
0.010,1.198,3.651,3.651,-67.443,-49.464,0.156
0.012,1.319,3.714,3.714,-67.371,-49.439,0.251
0.013,1.429,3.770,3.770,-67.305,-49.417,0.337
0.014,1.529,3.819,3.819,-67.244,-49.401,0.414
0.015,1.617,3.862,3.862,-67.189,-49.389,0.482
0.017,1.692,3.898,3.898,-67.141,-49.383,0.539
0.018,1.756,3.928,3.928,-67.098,-49.381,0.586
0.019,1.808,3.951,3.951,-67.062,-49.383,0.624
0.020,1.851,3.968,3.968,-67.030,-49.388,0.653
0.022,1.886,3.980,3.980,-67.004,-49.394,0.674
0.023,1.912,3.986,3.986,-66.983,-49.401,0.688
0.024,1.932,3.988,3.988,-66.966,-49.409,0.695
0.026,1.946,3.987,3.987,-66.953,-49.415,0.696
0.027,1.957,3.983,3.983,-66.945,-49.420,0.692
0.028,1.967,3.979,3.979,-66.939,-49.422,0.683
0.029,1.981,3.974,3.974,-66.937,-49.420,0.670
0.031,1.999,3.970,3.970,-66.938,-49.414,0.653
0.032,2.021,3.967,3.967,-66.941,-49.403,0.634
0.033,2.045,3.966,3.966,-66.944,-49.390,0.614
0.035,2.068,3.964,3.964,-66.946,-49.377,0.595
0.036,2.088,3.964,3.964,-66.945,-49.365,0.579
0.037,2.103,3.963,3.963,-66.939,-49.356,0.568
0.038,2.116,3.962,3.962,-66.928,-49.353,0.564
0.040,2.137,3.960,3.960,-66.908,-49.358,0.567
0.041,2.172,3.957,3.957,-66.879,-49.372,0.581
0.042,2.226,3.954,3.954,-66.838,-49.397,0.607
0.043,2.304,3.952,3.952,-66.784,-49.436,0.646
0.045,2.407,3.952,3.952,-66.716,-49.491,0.701
0.046,2.539,3.956,3.956,-66.631,-49.563,0.773
0.047,2.700,3.965,3.965,-66.531,-49.652,0.862
0.049,2.886,3.981,3.981,-66.418,-49.756,0.966
0.050,3.090,4.005,4.005,-66.296,-49.872,1.081
0.051,3.308,4.039,4.039,-66.167,-49.997,1.206
0.052,3.535,4.082,4.082,-66.036,-50.128,1.337
0.054,3.767,4.133,4.133,-65.904,-50.262,1.472
0.055,3.998,4.188,4.188,-65.776,-50.398,1.608
0.056,4.224,4.247,4.247,-65.654,-50.531,1.744
0.058,4.439,4.306,4.306,-65.542,-50.660,1.875
0.059,4.639,4.364,4.364,-65.443,-50.781,2.000
0.060,4.819,4.418,4.418,-65.360,-50.891,2.115
0.061,4.976,4.466,4.466,-65.296,-50.989,2.219
0.063,5.108,4.508,4.508,-65.251,-51.073,2.311
0.064,5.219,4.544,4.544,-65.222,-51.145,2.391
0.065,5.312,4.575,4.575,-65.209,-51.205,2.460
0.066,5.390,4.600,4.600,-65.207,-51.255,2.520
0.068,5.455,4.619,4.619,-65.215,-51.295,2.570
0.069,5.510,4.635,4.635,-65.231,-51.328,2.613
0.070,5.558,4.646,4.646,-65.251,-51.352,2.648
0.072,5.599,4.653,4.653,-65.275,-51.371,2.676
0.073,5.635,4.656,4.656,-65.299,-51.385,2.699
0.074,5.665,4.657,4.657,-65.321,-51.394,2.716
0.075,5.689,4.656,4.656,-65.339,-51.401,2.730
0.077,5.705,4.653,4.653,-65.351,-51.405,2.741
0.078,5.715,4.650,4.650,-65.356,-51.408,2.748
0.079,5.721,4.646,4.646,-65.356,-51.410,2.754
0.081,5.728,4.644,4.644,-65.350,-51.410,2.757
0.082,5.738,4.642,4.642,-65.339,-51.409,2.760
0.083,5.753,4.642,4.642,-65.325,-51.408,2.761
0.084,5.771,4.643,4.643,-65.307,-51.406,2.762
0.086,5.792,4.645,4.645,-65.286,-51.404,2.762
0.087,5.815,4.648,4.648,-65.263,-51.402,2.763
0.088,5.839,4.652,4.652,-65.240,-51.400,2.765
0.090,5.864,4.656,4.656,-65.215,-51.398,2.767
0.091,5.889,4.661,4.661,-65.190,-51.397,2.772
0.092,5.914,4.666,4.666,-65.166,-51.396,2.778
0.093,5.939,4.671,4.671,-65.142,-51.396,2.787
0.095,5.963,4.676,4.676,-65.120,-51.396,2.796
0.096,5.987,4.679,4.679,-65.099,-51.396,2.807
0.097,6.010,4.680,4.680,-65.079,-51.396,2.818
0.098,6.032,4.680,4.680,-65.060,-51.395,2.830
0.100,6.052,4.677,4.677,-65.043,-51.394,2.841
0.101,6.071,4.670,4.670,-65.028,-51.391,2.853
0.102,6.088,4.660,4.660,-65.016,-51.386,2.863
0.104,6.104,4.648,4.648,-65.005,-51.380,2.873
0.105,6.118,4.635,4.635,-64.997,-51.372,2.881
0.106,6.131,4.621,4.621,-64.991,-51.362,2.887
0.107,6.144,4.609,4.609,-64.988,-51.350,2.891
0.109,6.159,4.600,4.600,-64.987,-51.336,2.894
0.110,6.173,4.595,4.595,-64.986,-51.322,2.895
0.111,6.186,4.595,4.595,-64.985,-51.309,2.897
0.113,6.197,4.600,4.600,-64.982,-51.298,2.899
0.114,6.206,4.609,4.609,-64.977,-51.291,2.902
0.115,6.216,4.620,4.620,-64.968,-51.288,2.907
0.116,6.232,4.630,4.630,-64.955,-51.292,2.913
0.118,6.255,4.637,4.637,-64.937,-51.302,2.923
0.119,6.289,4.639,4.639,-64.911,-51.320,2.936
0.120,6.336,4.633,4.633,-64.878,-51.348,2.954
0.121,6.397,4.617,4.617,-64.836,-51.386,2.976
0.123,6.473,4.591,4.591,-64.785,-51.436,3.003
0.124,6.563,4.555,4.555,-64.726,-51.497,3.034
0.125,6.668,4.514,4.514,-64.660,-51.569,3.070
0.127,6.785,4.468,4.468,-64.587,-51.652,3.109
0.128,6.914,4.421,4.421,-64.510,-51.746,3.152
0.129,7.054,4.375,4.375,-64.428,-51.851,3.197
0.130,7.204,4.332,4.332,-64.344,-51.967,3.244
0.132,7.364,4.295,4.295,-64.258,-52.093,3.292
0.133,7.533,4.265,4.265,-64.172,-52.229,3.342
0.134,7.711,4.243,4.243,-64.085,-52.375,3.392
0.136,7.896,4.227,4.227,-64.000,-52.532,3.442
0.137,8.088,4.217,4.217,-63.918,-52.699,3.492
0.138,8.287,4.214,4.214,-63.839,-52.874,3.541
0.139,8.491,4.217,4.217,-63.762,-53.057,3.588
0.141,8.699,4.226,4.226,-63.688,-53.246,3.635
0.142,8.909,4.240,4.240,-63.617,-53.438,3.679
0.143,9.120,4.259,4.259,-63.547,-53.633,3.721
0.145,9.330,4.283,4.283,-63.479,-53.828,3.761
0.146,9.538,4.309,4.309,-63.412,-54.021,3.798
0.147,9.741,4.338,4.338,-63.346,-54.211,3.832
0.148,9.940,4.368,4.368,-63.281,-54.395,3.863
0.150,10.131,4.399,4.398,-63.217,-54.573,3.891
0.151,10.313,4.429,4.429,-63.153,-54.742,3.914
0.152,10.485,4.458,4.458,-63.088,-54.901,3.934
0.153,10.647,4.485,4.485,-63.024,-55.048,3.949
0.155,10.798,4.509,4.510,-62.960,-55.185,3.961
0.156,10.939,4.531,4.532,-62.897,-55.311,3.970
0.157,11.070,4.550,4.551,-62.836,-55.426,3.977
0.159,11.191,4.565,4.566,-62.776,-55.532,3.981
0.160,11.303,4.576,4.576,-62.719,-55.628,3.983
0.161,11.405,4.582,4.583,-62.665,-55.714,3.985
0.162,11.498,4.584,4.584,-62.614,-55.791,3.986
0.164,11.581,4.582,4.581,-62.567,-55.860,3.986
0.165,11.654,4.576,4.574,-62.525,-55.920,3.987
0.166,11.719,4.569,4.566,-62.487,-55.972,3.989
0.168,11.773,4.561,4.558,-62.454,-56.016,3.992
0.169,11.821,4.553,4.550,-62.425,-56.053,3.998
0.170,11.864,4.546,4.544,-62.398,-56.085,4.009
0.171,11.907,4.543,4.542,-62.369,-56.112,4.025
0.173,11.954,4.543,4.545,-62.338,-56.137,4.050
0.174,12.010,4.547,4.552,-62.301,-56.160,4.086
0.175,12.079,4.558,4.566,-62.256,-56.184,4.133
0.176,12.165,4.574,4.585,-62.200,-56.208,4.193
0.178,12.271,4.598,4.610,-62.132,-56.236,4.270
0.179,12.401,4.630,4.641,-62.049,-56.267,4.364
0.180,12.557,4.670,4.678,-61.948,-56.304,4.477
0.182,12.743,4.720,4.722,-61.827,-56.348,4.612
0.183,12.961,4.780,4.772,-61.685,-56.399,4.769
0.184,13.208,4.848,4.829,-61.523,-56.458,4.947
0.185,13.478,4.923,4.892,-61.346,-56.520,5.141
0.187,13.765,5.002,4.962,-61.158,-56.585,5.348
0.188,14.064,5.083,5.039,-60.963,-56.650,5.564
0.189,14.368,5.163,5.123,-60.765,-56.713,5.786
0.191,14.671,5.240,5.213,-60.568,-56.770,6.009
0.192,14.968,5.313,5.310,-60.377,-56.822,6.230
0.193,15.254,5.378,5.414,-60.194,-56.864,6.446
0.194,15.522,5.437,5.520,-60.025,-56.895,6.652
0.196,15.769,5.490,5.627,-59.873,-56.912,6.845
0.197,15.988,5.538,5.729,-59.743,-56.914,7.021
0.198,16.177,5.582,5.823,-59.638,-56.898,7.178
0.199,16.339,5.623,5.906,-59.555,-56.867,7.314
0.201,16.479,5.662,5.973,-59.494,-56.823,7.432
0.202,16.602,5.700,6.021,-59.451,-56.768,7.533
0.203,16.711,5.738,6.048,-59.424,-56.705,7.617
0.205,16.809,5.774,6.055,-59.410,-56.637,7.687
0.206,16.900,5.807,6.046,-59.407,-56.565,7.742
0.207,16.984,5.837,6.026,-59.412,-56.493,7.785
0.208,17.062,5.862,5.997,-59.423,-56.422,7.816
0.210,17.133,5.881,5.962,-59.438,-56.356,7.836
0.211,17.195,5.893,5.927,-59.453,-56.296,7.847
0.212,17.247,5.897,5.893,-59.467,-56.246,7.850
0.214,17.288,5.892,5.864,-59.477,-56.207,7.846
0.215,17.319,5.880,5.839,-59.484,-56.178,7.837
0.216,17.342,5.864,5.820,-59.488,-56.159,7.824
0.217,17.360,5.846,5.806,-59.489,-56.148,7.810
0.219,17.374,5.828,5.797,-59.489,-56.145,7.796
0.220,17.386,5.812,5.792,-59.487,-56.149,7.785
0.221,17.399,5.800,5.792,-59.483,-56.158,7.777
0.223,17.414,5.795,5.797,-59.479,-56.172,7.776
0.224,17.433,5.798,5.806,-59.475,-56.190,7.782
0.225,17.460,5.808,5.820,-59.470,-56.211,7.798
0.226,17.496,5.824,5.837,-59.467,-56.234,7.825
0.228,17.543,5.846,5.858,-59.464,-56.258,7.866
0.229,17.603,5.872,5.881,-59.462,-56.282,7.921
0.230,17.674,5.901,5.907,-59.460,-56.305,7.988
0.231,17.754,5.933,5.935,-59.458,-56.327,8.065
0.233,17.842,5.966,5.965,-59.454,-56.347,8.150
0.234,17.935,6.000,5.996,-59.448,-56.364,8.242
0.235,18.033,6.033,6.026,-59.439,-56.377,8.338
0.237,18.133,6.063,6.055,-59.425,-56.386,8.437
0.238,18.233,6.090,6.081,-59.407,-56.389,8.536
0.239,18.334,6.112,6.104,-59.384,-56.386,8.634
0.240,18.434,6.128,6.121,-59.354,-56.376,8.728
0.242,18.532,6.135,6.132,-59.316,-56.359,8.818
0.243,18.629,6.134,6.136,-59.271,-56.333,8.900
0.244,18.728,6.123,6.132,-59.217,-56.299,8.974
0.246,18.829,6.102,6.120,-59.153,-56.258,9.043
0.247,18.936,6.074,6.099,-59.081,-56.213,9.107
0.248,19.049,6.038,6.071,-58.999,-56.164,9.168
0.249,19.170,5.994,6.034,-58.907,-56.114,9.228
0.251,19.298,5.944,5.989,-58.806,-56.065,9.289
0.252,19.435,5.888,5.936,-58.693,-56.017,9.352
0.253,19.582,5.827,5.875,-58.571,-55.973,9.419
0.254,19.738,5.763,5.807,-58.437,-55.935,9.491
0.256,19.906,5.696,5.735,-58.293,-55.903,9.570
0.257,20.087,5.629,5.661,-58.137,-55.880,9.658
0.258,20.281,5.565,5.589,-57.970,-55.868,9.757
0.260,20.489,5.505,5.521,-57.792,-55.866,9.865
0.261,20.707,5.451,5.459,-57.607,-55.874,9.981
0.262,20.932,5.405,5.407,-57.418,-55.890,10.101
0.263,21.160,5.370,5.367,-57.228,-55.913,10.225
0.265,21.389,5.343,5.338,-57.039,-55.942,10.350
0.266,21.614,5.324,5.318,-56.854,-55.976,10.474
0.267,21.831,5.310,5.304,-56.676,-56.013,10.593
0.269,22.038,5.299,5.294,-56.508,-56.053,10.707
0.270,22.230,5.288,5.284,-56.353,-56.095,10.813
0.271,22.404,5.275,5.273,-56.214,-56.137,10.908
0.272,22.557,5.259,5.258,-56.093,-56.178,10.991
0.274,22.684,5.235,5.236,-55.993,-56.218,11.059
0.275,22.786,5.207,5.209,-55.913,-56.255,11.112
0.276,22.868,5.175,5.177,-55.852,-56.290,11.153
0.277,22.931,5.141,5.144,-55.808,-56.323,11.182
0.279,22.979,5.109,5.111,-55.777,-56.355,11.202
0.280,23.017,5.079,5.081,-55.758,-56.386,11.213
0.281,23.048,5.054,5.055,-55.749,-56.415,11.217
0.283,23.076,5.037,5.037,-55.747,-56.443,11.216
0.284,23.104,5.028,5.027,-55.750,-56.470,11.211
0.285,23.132,5.027,5.026,-55.757,-56.496,11.204
0.286,23.160,5.032,5.030,-55.764,-56.522,11.196
0.288,23.187,5.040,5.038,-55.770,-56.548,11.188
0.289,23.213,5.051,5.049,-55.773,-56.573,11.182
0.290,23.239,5.061,5.059,-55.772,-56.598,11.179
0.292,23.264,5.070,5.068,-55.769,-56.624,11.178
0.293,23.291,5.074,5.073,-55.762,-56.649,11.179
0.294,23.320,5.072,5.073,-55.753,-56.676,11.182
0.295,23.350,5.064,5.068,-55.741,-56.704,11.187
0.297,23.383,5.053,5.059,-55.727,-56.733,11.194
0.298,23.418,5.037,5.047,-55.712,-56.763,11.203
0.299,23.456,5.020,5.032,-55.695,-56.795,11.214
0.301,23.496,5.001,5.015,-55.677,-56.829,11.227
0.302,23.540,4.981,4.997,-55.658,-56.865,11.242
0.303,23.586,4.962,4.980,-55.639,-56.904,11.258
0.304,23.635,4.944,4.963,-55.619,-56.945,11.276
0.306,23.687,4.927,4.947,-55.598,-56.988,11.295
0.307,23.741,4.911,4.932,-55.578,-57.034,11.315
0.308,23.797,4.895,4.917,-55.558,-57.082,11.336
0.309,23.854,4.879,4.904,-55.537,-57.131,11.358
0.311,23.913,4.861,4.891,-55.517,-57.182,11.379
0.312,23.972,4.843,4.879,-55.497,-57.233,11.401
0.313,24.033,4.823,4.868,-55.477,-57.286,11.421
0.315,24.093,4.801,4.858,-55.457,-57.340,11.441
0.316,24.153,4.778,4.848,-55.438,-57.394,11.460
0.317,24.213,4.754,4.838,-55.419,-57.448,11.477
0.318,24.272,4.731,4.828,-55.400,-57.502,11.493
0.320,24.330,4.710,4.818,-55.383,-57.555,11.507
0.321,24.389,4.690,4.806,-55.365,-57.609,11.521
0.322,24.448,4.674,4.793,-55.346,-57.664,11.537
0.324,24.510,4.662,4.778,-55.327,-57.719,11.556
0.325,24.575,4.653,4.762,-55.306,-57.775,11.581
0.326,24.645,4.646,4.742,-55.283,-57.832,11.613
0.327,24.721,4.638,4.717,-55.257,-57.892,11.654
0.329,24.806,4.627,4.688,-55.229,-57.953,11.706
0.330,24.902,4.611,4.653,-55.196,-58.017,11.770
0.331,25.011,4.586,4.610,-55.160,-58.083,11.848
0.332,25.135,4.551,4.559,-55.119,-58.152,11.942
0.334,25.276,4.503,4.500,-55.073,-58.225,12.054
0.335,25.436,4.443,4.432,-55.021,-58.302,12.185
0.336,25.614,4.373,4.358,-54.965,-58.384,12.332
0.338,25.810,4.297,4.281,-54.904,-58.472,12.496
0.339,26.023,4.219,4.205,-54.840,-58.569,12.675
0.340,26.253,4.143,4.132,-54.771,-58.674,12.868
0.341,26.500,4.072,4.065,-54.700,-58.790,13.073
0.343,26.762,4.010,4.008,-54.625,-58.918,13.289
0.344,27.039,3.961,3.963,-54.549,-59.059,13.516
0.345,27.332,3.927,3.932,-54.470,-59.214,13.751
0.347,27.640,3.910,3.917,-54.391,-59.384,13.995
0.348,27.962,3.910,3.919,-54.310,-59.572,14.244
0.349,28.300,3.930,3.938,-54.229,-59.778,14.499
0.350,28.649,3.969,3.977,-54.148,-60.000,14.757
0.352,29.006,4.030,4.035,-54.068,-60.234,15.015
0.353,29.364,4.113,4.115,-53.991,-60.475,15.268
0.354,29.719,4.219,4.216,-53.917,-60.719,15.513
0.355,30.063,4.346,4.337,-53.847,-60.962,15.747
0.357,30.391,4.485,4.472,-53.783,-61.198,15.967
0.358,30.698,4.631,4.613,-53.725,-61.422,16.168
0.359,30.978,4.775,4.755,-53.675,-61.632,16.347
0.361,31.225,4.911,4.891,-53.634,-61.820,16.501
0.362,31.434,5.031,5.016,-53.603,-61.984,16.626
0.363,31.599,5.128,5.123,-53.582,-62.119,16.719
0.364,31.715,5.196,5.206,-53.573,-62.219,16.776
0.366,31.787,5.234,5.265,-53.574,-62.287,16.800
0.367,31.827,5.248,5.303,-53.583,-62.327,16.799
0.368,31.857,5.243,5.322,-53.598,-62.343,16.779
0.370,31.892,5.223,5.325,-53.615,-62.341,16.748
0.371,31.935,5.194,5.315,-53.632,-62.324,16.713
0.372,31.979,5.161,5.296,-53.646,-62.298,16.681
0.373,32.017,5.128,5.270,-53.655,-62.268,16.659
0.375,32.048,5.102,5.241,-53.657,-62.238,16.654
0.376,32.081,5.083,5.210,-53.648,-62.212,16.673
0.377,32.139,5.072,5.182,-53.625,-62.196,16.724
0.379,32.237,5.070,5.158,-53.587,-62.194,16.814
0.380,32.384,5.078,5.142,-53.531,-62.211,16.948
0.381,32.577,5.097,5.137,-53.458,-62.245,17.124
0.382,32.809,5.126,5.145,-53.372,-62.294,17.334
0.384,33.071,5.167,5.169,-53.275,-62.354,17.570
0.385,33.354,5.220,5.212,-53.171,-62.424,17.824
0.386,33.651,5.282,5.271,-53.062,-62.499,18.090
0.387,33.952,5.350,5.341,-52.952,-62.578,18.359
0.389,34.249,5.420,5.418,-52.843,-62.657,18.624
0.390,34.534,5.488,5.497,-52.738,-62.733,18.877
0.391,34.797,5.551,5.575,-52.642,-62.803,19.111
0.393,35.029,5.605,5.646,-52.555,-62.865,19.318
0.394,35.224,5.646,5.705,-52.483,-62.915,19.491
0.395,35.372,5.673,5.750,-52.426,-62.951,19.624
0.396,35.479,5.685,5.781,-52.383,-62.975,19.719
0.398,35.549,5.687,5.801,-52.354,-62.988,19.781
0.399,35.590,5.680,5.810,-52.335,-62.993,19.816
0.400,35.607,5.669,5.811,-52.323,-62.990,19.829
0.402,35.617,5.655,5.807,-52.318,-62.983,19.824
0.403,35.636,5.642,5.799,-52.317,-62.973,19.808
0.404,35.662,5.632,5.789,-52.318,-62.962,19.784
0.405,35.689,5.628,5.780,-52.318,-62.953,19.759
0.407,35.712,5.630,5.771,-52.315,-62.946,19.736
0.408,35.728,5.637,5.764,-52.308,-62.945,19.722
0.409,35.744,5.648,5.760,-52.293,-62.951,19.722
0.410,35.776,5.662,5.758,-52.271,-62.965,19.738
0.412,35.826,5.680,5.760,-52.239,-62.987,19.771
0.413,35.893,5.699,5.766,-52.200,-63.016,19.817
0.414,35.975,5.720,5.778,-52.154,-63.050,19.876
0.416,36.070,5.742,5.794,-52.101,-63.089,19.944
0.417,36.175,5.765,5.815,-52.042,-63.130,20.021
0.418,36.289,5.787,5.838,-51.978,-63.174,20.104
0.419,36.409,5.810,5.864,-51.908,-63.219,20.191
0.421,36.533,5.833,5.889,-51.835,-63.263,20.281
0.422,36.660,5.855,5.914,-51.757,-63.307,20.371
0.423,36.786,5.876,5.937,-51.677,-63.347,20.459
0.425,36.911,5.896,5.956,-51.593,-63.385,20.544
0.426,37.032,5.915,5.971,-51.508,-63.418,20.625
0.427,37.151,5.933,5.983,-51.422,-63.448,20.700
0.428,37.265,5.950,5.993,-51.336,-63.475,20.771
0.430,37.376,5.967,6.001,-51.251,-63.500,20.836
0.431,37.481,5.984,6.009,-51.169,-63.525,20.898
0.432,37.582,6.002,6.017,-51.090,-63.550,20.955
0.434,37.676,6.020,6.026,-51.015,-63.575,21.007
0.435,37.764,6.039,6.037,-50.946,-63.603,21.055
0.436,37.846,6.060,6.050,-50.884,-63.633,21.098
0.437,37.921,6.081,6.065,-50.829,-63.666,21.138
0.439,37.990,6.102,6.083,-50.783,-63.703,21.173
0.440,38.054,6.122,6.102,-50.747,-63.746,21.204
0.441,38.116,6.142,6.123,-50.720,-63.794,21.231
0.442,38.177,6.160,6.146,-50.702,-63.848,21.255
0.444,38.240,6.176,6.170,-50.689,-63.906,21.275
0.445,38.306,6.190,6.195,-50.681,-63.969,21.291
0.446,38.375,6.200,6.221,-50.675,-64.037,21.305
0.448,38.448,6.209,6.246,-50.669,-64.109,21.315
0.449,38.525,6.215,6.270,-50.662,-64.185,21.323
0.450,38.606,6.220,6.292,-50.652,-64.265,21.328
0.451,38.691,6.224,6.310,-50.637,-64.349,21.331
0.453,38.781,6.228,6.323,-50.615,-64.436,21.332
0.454,38.876,6.231,6.331,-50.585,-64.526,21.331
0.455,38.978,6.234,6.332,-50.543,-64.619,21.328
0.457,39.087,6.238,6.328,-50.492,-64.715,21.324
0.458,39.203,6.242,6.319,-50.431,-64.814,21.320
0.459,39.325,6.244,6.308,-50.362,-64.915,21.317
0.460,39.454,6.246,6.297,-50.286,-65.019,21.315
0.462,39.588,6.246,6.288,-50.205,-65.126,21.317
0.463,39.727,6.244,6.283,-50.120,-65.235,21.321
0.464,39.869,6.239,6.284,-50.033,-65.347,21.330
0.465,40.015,6.232,6.292,-49.944,-65.462,21.345
0.467,40.164,6.222,6.308,-49.855,-65.579,21.366
0.468,40.315,6.211,6.329,-49.768,-65.699,21.395
0.469,40.468,6.201,6.353,-49.683,-65.822,21.432
0.471,40.624,6.194,6.378,-49.602,-65.947,21.478
0.472,40.781,6.190,6.402,-49.526,-66.073,21.532
0.473,40.940,6.191,6.424,-49.455,-66.200,21.594
0.474,41.097,6.198,6.441,-49.388,-66.327,21.661
0.476,41.253,6.214,6.451,-49.325,-66.451,21.731
0.477,41.406,6.236,6.455,-49.268,-66.572,21.804
0.478,41.553,6.263,6.454,-49.214,-66.688,21.878
0.480,41.695,6.293,6.449,-49.166,-66.798,21.951
0.481,41.827,6.324,6.440,-49.122,-66.902,22.022
0.482,41.950,6.355,6.430,-49.083,-66.997,22.089
0.483,42.061,6.382,6.419,-49.048,-67.082,22.150
0.485,42.158,6.404,6.408,-49.019,-67.157,22.205
0.486,42.240,6.420,6.399,-48.994,-67.220,22.251
0.487,42.308,6.429,6.392,-48.973,-67.272,22.289
0.488,42.364,6.433,6.388,-48.955,-67.316,22.320
0.490,42.412,6.434,6.386,-48.941,-67.354,22.345
0.491,42.452,6.431,6.388,-48.928,-67.387,22.364
0.492,42.488,6.427,6.393,-48.916,-67.418,22.379
0.494,42.522,6.423,6.403,-48.905,-67.449,22.389
0.495,42.558,6.419,6.418,-48.894,-67.481,22.396
0.496,42.597,6.417,6.437,-48.881,-67.518,22.401
0.497,42.642,6.417,6.460,-48.867,-67.560,22.405
0.499,42.695,6.418,6.486,-48.851,-67.611,22.408
0.500,42.759,6.422,6.511,-48.831,-67.672,22.411
0.501,42.835,6.427,6.537,-48.807,-67.744,22.415
0.503,42.922,6.434,6.559,-48.781,-67.827,22.420
0.504,43.016,6.442,6.578,-48.754,-67.917,22.425
0.505,43.116,6.452,6.592,-48.727,-68.013,22.431
0.506,43.219,6.464,6.599,-48.701,-68.112,22.438
0.508,43.323,6.476,6.602,-48.678,-68.213,22.445
0.509,43.425,6.487,6.603,-48.659,-68.313,22.453
0.510,43.523,6.497,6.604,-48.646,-68.410,22.460
0.512,43.616,6.503,6.609,-48.639,-68.502,22.468
0.513,43.701,6.506,6.618,-48.641,-68.587,22.475
0.514,43.777,6.504,6.635,-48.652,-68.662,22.483
0.515,43.845,6.496,6.662,-48.675,-68.725,22.490
0.517,43.906,6.481,6.700,-48.707,-68.776,22.497
0.518,43.964,6.460,6.743,-48.748,-68.818,22.505
0.519,44.020,6.436,6.789,-48.791,-68.852,22.514
0.520,44.074,6.410,6.831,-48.833,-68.884,22.526
0.522,44.124,6.383,6.865,-48.869,-68.914,22.541
0.523,44.172,6.357,6.886,-48.897,-68.948,22.561
0.524,44.221,6.333,6.890,-48.910,-68.988,22.587
0.526,44.279,6.314,6.870,-48.905,-69.037,22.618
0.527,44.357,6.298,6.826,-48.879,-69.099,22.657
0.528,44.462,6.284,6.761,-48.826,-69.176,22.704
0.529,44.601,6.268,6.679,-48.742,-69.272,22.760
0.531,44.780,6.249,6.583,-48.624,-69.390,22.826
0.532,45.002,6.224,6.477,-48.471,-69.531,22.901
0.533,45.261,6.190,6.366,-48.286,-69.692,22.985
0.535,45.550,6.143,6.253,-48.076,-69.871,23.074
0.536,45.865,6.082,6.142,-47.846,-70.064,23.166
0.537,46.198,6.007,6.035,-47.601,-70.269,23.259
0.538,46.543,5.919,5.934,-47.345,-70.482,23.351
