"T","Distance","Radius","FreeRadius","X","Y","Z"
0.000,0.000,1.484,1.484,-24.461,113.644,164.001
0.001,0.173,1.555,1.555,-24.445,113.730,163.852
0.003,0.343,1.624,1.624,-24.429,113.815,163.705
0.004,0.510,1.689,1.689,-24.416,113.896,163.560
0.005,0.670,1.749,1.749,-24.405,113.972,163.419
0.006,0.823,1.802,1.802,-24.398,114.042,163.283
0.008,0.967,1.845,1.845,-24.395,114.104,163.154
0.009,1.099,1.878,1.878,-24.399,114.157,163.032
0.010,1.219,1.898,1.898,-24.409,114.198,162.920
0.011,1.327,1.903,1.903,-24.426,114.226,162.818
0.013,1.422,1.897,1.897,-24.452,114.240,162.727
0.014,1.507,1.882,1.882,-24.487,114.239,162.650
0.015,1.587,1.861,1.861,-24.533,114.219,162.587
0.016,1.667,1.837,1.837,-24.586,114.185,162.537
0.018,1.747,1.813,1.813,-24.643,114.142,162.502
0.019,1.823,1.792,1.792,-24.697,114.094,162.478
0.020,1.890,1.777,1.777,-24.745,114.049,162.466
0.021,1.943,1.771,1.771,-24.782,114.011,162.465
0.023,1.976,1.774,1.774,-24.801,113.986,162.473
0.024,1.994,1.787,1.787,-24.800,113.980,162.490
0.025,2.035,1.809,1.809,-24.772,113.998,162.515
0.026,2.118,1.841,1.841,-24.713,114.046,162.547
0.028,2.250,1.883,1.883,-24.618,114.130,162.584
0.029,2.439,1.933,1.933,-24.482,114.255,162.627
0.030,2.689,1.994,1.994,-24.304,114.424,162.673
0.031,2.994,2.063,2.063,-24.088,114.632,162.724
0.033,3.342,2.143,2.143,-23.841,114.873,162.778
0.034,3.727,2.232,2.232,-23.572,115.141,162.834
0.035,4.138,2.332,2.332,-23.285,115.429,162.894
0.036,4.566,2.443,2.443,-22.989,115.733,162.955
0.038,5.003,2.566,2.566,-22.689,116.045,163.018
0.039,5.440,2.701,2.701,-22.394,116.359,163.083
0.040,5.866,2.848,2.848,-22.109,116.670,163.148
0.041,6.274,3.008,3.008,-21.842,116.971,163.214
0.043,6.654,3.178,3.178,-21.600,117.257,163.280
0.044,6.999,3.355,3.355,-21.388,117.521,163.346
0.045,7.307,3.533,3.533,-21.208,117.762,163.412
0.046,7.581,3.710,3.710,-21.056,117.980,163.476
0.048,7.823,3.880,3.880,-20.930,118.178,163.539
0.049,8.037,4.041,4.041,-20.828,118.355,163.600
0.050,8.224,4.187,4.187,-20.745,118.512,163.659
0.051,8.387,4.315,4.315,-20.680,118.651,163.715
0.053,8.529,4.424,4.424,-20.629,118.772,163.768
0.054,8.650,4.516,4.516,-20.591,118.876,163.817
0.055,8.754,4.592,4.592,-20.561,118.964,163.862
0.056,8.841,4.653,4.653,-20.538,119.037,163.904
0.058,8.912,4.701,4.701,-20.519,119.096,163.940
0.059,8.970,4.738,4.738,-20.501,119.141,163.971
0.060,9.016,4.764,4.764,-20.485,119.175,163.998
0.061,9.052,4.782,4.782,-20.470,119.198,164.021
0.063,9.079,4.792,4.792,-20.457,119.213,164.039
0.064,9.099,4.797,4.797,-20.445,119.219,164.054
0.065,9.115,4.796,4.796,-20.434,119.220,164.065
0.066,9.129,4.792,4.792,-20.423,119.216,164.074
0.068,9.142,4.785,4.785,-20.414,119.209,164.079
0.069,9.155,4.777,4.777,-20.406,119.200,164.082
0.070,9.167,4.769,4.769,-20.398,119.190,164.083
0.071,9.178,4.762,4.762,-20.390,119.182,164.082
0.073,9.188,4.757,4.757,-20.383,119.176,164.079
0.074,9.196,4.753,4.753,-20.377,119.172,164.076
0.075,9.203,4.750,4.750,-20.371,119.170,164.073
0.076,9.210,4.749,4.749,-20.365,119.170,164.071
0.078,9.216,4.748,4.748,-20.358,119.171,164.071
0.079,9.223,4.747,4.747,-20.352,119.172,164.075
0.080,9.233,4.747,4.747,-20.346,119.174,164.082
0.081,9.248,4.747,4.747,-20.339,119.176,164.095
0.083,9.268,4.746,4.746,-20.332,119.178,164.114
0.084,9.294,4.745,4.745,-20.324,119.178,164.139
0.085,9.329,4.743,4.743,-20.316,119.178,164.173
0.086,9.372,4.741,4.741,-20.307,119.176,164.215
0.088,9.425,4.736,4.736,-20.297,119.172,164.267
0.089,9.488,4.731,4.731,-20.285,119.167,164.328
0.090,9.560,4.723,4.723,-20.272,119.163,164.399
0.091,9.642,4.713,4.713,-20.255,119.158,164.479
0.093,9.734,4.701,4.701,-20.235,119.155,164.569
0.094,9.836,4.687,4.687,-20.211,119.153,164.668
0.095,9.949,4.672,4.672,-20.182,119.154,164.777
0.096,10.072,4.656,4.656,-20.149,119.157,164.895
0.098,10.205,4.640,4.640,-20.110,119.165,165.023
0.099,10.350,4.624,4.624,-20.064,119.176,165.160
0.100,10.507,4.609,4.609,-20.012,119.193,165.307
0.101,10.675,4.595,4.595,-19.953,119.215,165.463
0.103,10.854,4.581,4.581,-19.886,119.243,165.626
0.104,11.040,4.569,4.569,-19.814,119.276,165.795
0.105,11.233,4.555,4.555,-19.736,119.316,165.966
0.106,11.430,4.540,4.540,-19.653,119.362,166.138
0.108,11.629,4.522,4.522,-19.565,119.414,166.309
0.109,11.828,4.500,4.500,-19.474,119.473,166.477
0.110,12.027,4.473,4.473,-19.379,119.538,166.639
0.111,12.222,4.441,4.441,-19.282,119.609,166.793
0.113,12.414,4.402,4.402,-19.182,119.688,166.937
0.114,12.601,4.360,4.360,-19.082,119.774,167.069
0.115,12.782,4.315,4.315,-18.980,119.866,167.186
0.116,12.958,4.272,4.272,-18.877,119.965,167.289
0.118,13.130,4.231,4.231,-18.774,120.069,167.380
0.119,13.300,4.196,4.196,-18.671,120.178,167.459
0.120,13.467,4.168,4.168,-18.567,120.289,167.529
0.121,13.633,4.150,4.150,-18.462,120.401,167.592
0.123,13.797,4.144,4.144,-18.357,120.514,167.648
0.124,13.959,4.148,4.148,-18.252,120.627,167.700
0.125,14.119,4.160,4.160,-18.147,120.737,167.748
0.126,14.277,4.179,4.179,-18.041,120.844,167.796
0.128,14.432,4.201,4.201,-17.936,120.946,167.844
0.129,14.584,4.227,4.227,-17.830,121.043,167.894
0.130,14.733,4.252,4.252,-17.724,121.133,167.948
0.131,14.879,4.276,4.276,-17.618,121.218,168.004
0.133,15.024,4.297,4.297,-17.513,121.297,168.063
0.134,15.167,4.315,4.314,-17.407,121.372,168.123
0.135,15.309,4.330,4.330,-17.301,121.444,168.185
0.136,15.451,4.344,4.344,-17.195,121.513,168.248
0.138,15.591,4.358,4.357,-17.090,121.580,168.312
0.139,15.731,4.371,4.370,-16.984,121.646,168.376
0.140,15.871,4.385,4.385,-16.878,121.712,168.439
0.141,16.010,4.400,4.400,-16.773,121.779,168.501
0.143,16.149,4.417,4.418,-16.667,121.847,168.562
0.144,16.289,4.438,4.438,-16.562,121.916,168.621
0.145,16.428,4.461,4.462,-16.457,121.988,168.678
0.146,16.568,4.489,4.491,-16.352,122.063,168.732
0.148,16.709,4.522,4.524,-16.246,122.139,168.785
0.149,16.849,4.560,4.562,-16.141,122.218,168.835
0.150,16.990,4.605,4.606,-16.036,122.299,168.883
0.151,17.132,4.656,4.657,-15.930,122.382,168.928
0.153,17.274,4.716,4.714,-15.824,122.467,168.971
0.154,17.417,4.781,4.778,-15.719,122.554,169.011
0.155,17.561,4.852,4.847,-15.612,122.642,169.049
0.156,17.705,4.926,4.920,-15.506,122.733,169.084
0.158,17.850,5.001,4.994,-15.399,122.826,169.116
0.159,17.996,5.076,5.070,-15.292,122.920,169.146
0.160,18.141,5.150,5.145,-15.185,123.015,169.172
0.161,18.286,5.219,5.218,-15.079,123.111,169.196
0.163,18.428,5.284,5.288,-14.975,123.206,169.216
0.164,18.568,5.344,5.355,-14.873,123.301,169.234
0.165,18.705,5.399,5.418,-14.774,123.394,169.249
0.166,18.838,5.450,5.478,-14.678,123.485,169.261
0.168,18.966,5.497,5.535,-14.587,123.573,169.270
0.169,19.087,5.541,5.588,-14.500,123.659,169.275
0.170,19.203,5.583,5.638,-14.418,123.740,169.278
0.171,19.311,5.623,5.685,-14.343,123.817,169.278
0.173,19.411,5.661,5.729,-14.273,123.889,169.274
0.174,19.503,5.698,5.770,-14.210,123.956,169.268
0.175,19.587,5.733,5.808,-14.153,124.018,169.259
0.176,19.664,5.766,5.842,-14.102,124.074,169.249
0.178,19.734,5.796,5.873,-14.057,124.126,169.238
0.179,19.797,5.823,5.901,-14.017,124.173,169.226
0.180,19.853,5.846,5.925,-13.983,124.216,169.214
0.181,19.902,5.866,5.945,-13.953,124.253,169.203
0.183,19.944,5.881,5.962,-13.928,124.286,169.192
0.184,19.980,5.891,5.976,-13.908,124.314,169.184
0.185,20.009,5.899,5.986,-13.892,124.337,169.177
0.186,20.032,5.903,5.993,-13.879,124.356,169.173
0.188,20.049,5.906,5.998,-13.871,124.371,169.171
0.189,20.061,5.907,6.001,-13.866,124.382,169.172
0.190,20.070,5.907,6.003,-13.863,124.390,169.175
0.191,20.078,5.907,6.002,-13.863,124.396,169.180
0.193,20.085,5.908,6.001,-13.865,124.400,169.186
0.194,20.093,5.910,5.999,-13.867,124.404,169.193
0.195,20.102,5.913,5.996,-13.871,124.406,169.200
0.196,20.111,5.916,5.993,-13.874,124.409,169.208
0.198,20.120,5.918,5.990,-13.878,124.413,169.215
0.199,20.129,5.921,5.988,-13.880,124.419,169.222
0.200,20.139,5.922,5.986,-13.882,124.426,169.228
0.201,20.150,5.923,5.984,-13.881,124.437,169.232
0.203,20.164,5.923,5.984,-13.879,124.450,169.236
0.204,20.181,5.921,5.984,-13.877,124.467,169.238
0.205,20.202,5.918,5.985,-13.873,124.488,169.240
0.206,20.227,5.914,5.985,-13.869,124.512,169.240
0.208,20.257,5.909,5.985,-13.865,124.541,169.239
0.209,20.291,5.905,5.984,-13.861,124.575,169.238
0.210,20.330,5.900,5.980,-13.857,124.614,169.236
0.211,20.374,5.896,5.975,-13.855,124.658,169.233
0.213,20.424,5.892,5.966,-13.853,124.708,169.230
0.214,20.480,5.889,5.955,-13.853,124.764,169.226
0.215,20.543,5.886,5.941,-13.855,124.826,169.221
0.216,20.611,5.884,5.927,-13.859,124.895,169.217
0.218,20.685,5.883,5.913,-13.863,124.968,169.212
0.219,20.762,5.882,5.901,-13.868,125.045,169.208
0.220,20.843,5.882,5.890,-13.872,125.125,169.205
0.221,20.925,5.881,5.884,-13.875,125.208,169.204
0.223,21.009,5.881,5.881,-13.876,125.291,169.204
0.224,21.093,5.881,5.884,-13.875,125.375,169.206
0.225,21.177,5.881,5.890,-13.870,125.459,169.211
0.226,21.259,5.880,5.899,-13.861,125.541,169.218
0.228,21.340,5.878,5.909,-13.848,125.620,169.229
0.229,21.420,5.874,5.919,-13.829,125.696,169.243
0.230,21.497,5.869,5.928,-13.805,125.767,169.262
0.231,21.572,5.861,5.934,-13.777,125.833,169.283
0.233,21.643,5.850,5.937,-13.747,125.893,169.307
0.234,21.709,5.837,5.935,-13.716,125.946,169.332
0.235,21.769,5.823,5.929,-13.686,125.990,169.358
0.236,21.820,5.807,5.921,-13.659,126.024,169.384
0.238,21.862,5.793,5.911,-13.636,126.049,169.410
0.239,21.895,5.781,5.899,-13.619,126.062,169.434
0.240,21.919,5.771,5.887,-13.610,126.063,169.456
0.241,21.941,5.766,5.876,-13.610,126.051,169.476
0.243,21.974,5.767,5.867,-13.621,126.025,169.491
0.244,22.023,5.773,5.860,-13.645,125.984,169.502
0.245,22.085,5.784,5.853,-13.678,125.932,169.510
0.246,22.155,5.795,5.847,-13.717,125.874,169.513
0.248,22.225,5.804,5.839,-13.757,125.816,169.515
0.249,22.288,5.808,5.828,-13.794,125.765,169.514
0.250,22.336,5.805,5.813,-13.822,125.726,169.512
0.251,22.363,5.791,5.792,-13.838,125.705,169.510
0.253,22.366,5.765,5.765,-13.837,125.708,169.508
0.254,22.405,5.723,5.729,-13.814,125.740,169.507
0.255,22.488,5.667,5.686,-13.766,125.807,169.509
0.256,22.623,5.601,5.636,-13.687,125.916,169.512
0.258,22.816,5.525,5.579,-13.572,126.071,169.519
0.259,23.069,5.443,5.516,-13.423,126.275,169.530
0.260,23.372,5.357,5.446,-13.243,126.519,169.544
0.261,23.715,5.268,5.371,-13.039,126.794,169.561
0.263,24.087,5.181,5.291,-12.818,127.093,169.580
0.264,24.478,5.096,5.206,-12.586,127.407,169.601
0.265,24.878,5.015,5.119,-12.349,127.728,169.623
0.266,25.274,4.939,5.031,-12.113,128.046,169.646
0.268,25.658,4.868,4.945,-11.886,128.354,169.670
0.269,26.017,4.803,4.863,-11.672,128.642,169.693
0.270,26.343,4.746,4.786,-11.480,128.904,169.717
0.271,26.624,4.697,4.718,-11.314,129.129,169.739
0.273,26.851,4.657,4.660,-11.180,129.311,169.760
0.274,27.027,4.627,4.614,-11.076,129.453,169.780
0.275,27.161,4.605,4.580,-10.998,129.558,169.803
0.276,27.259,4.590,4.558,-10.940,129.633,169.828
0.278,27.330,4.581,4.545,-10.898,129.683,169.858
0.279,27.386,4.577,4.540,-10.867,129.713,169.894
0.280,27.438,4.576,4.544,-10.843,129.729,169.937
0.281,27.496,4.576,4.555,-10.821,129.735,169.990
0.283,27.565,4.576,4.571,-10.796,129.737,170.054
0.284,27.648,4.575,4.592,-10.763,129.741,170.130
0.285,27.749,4.574,4.617,-10.718,129.751,170.220
0.286,27.873,4.572,4.644,-10.656,129.773,170.326
0.288,28.023,4.573,4.674,-10.576,129.809,170.447
0.289,28.195,4.576,4.704,-10.481,129.859,170.581
0.290,28.386,4.583,4.734,-10.373,129.920,170.726
0.291,28.592,4.596,4.763,-10.256,129.993,170.880
0.293,28.810,4.615,4.790,-10.134,130.075,171.040
0.294,29.036,4.642,4.814,-10.008,130.166,171.205
0.295,29.266,4.675,4.835,-9.882,130.264,171.371
0.296,29.497,4.714,4.854,-9.760,130.368,171.537
0.298,29.725,4.756,4.870,-9.644,130.477,171.701
0.299,29.947,4.799,4.885,-9.538,130.589,171.860
0.300,30.160,4.841,4.899,-9.444,130.704,172.012
0.301,30.360,4.881,4.911,-9.365,130.820,172.155
0.303,30.549,4.916,4.924,-9.300,130.936,172.288
0.304,30.727,4.945,4.937,-9.248,131.051,172.413
0.305,30.893,4.968,4.949,-9.207,131.164,172.529
0.306,31.049,4.983,4.961,-9.177,131.274,172.636
0.308,31.195,4.993,4.970,-9.155,131.379,172.734
0.309,31.329,4.998,4.978,-9.141,131.478,172.824
0.310,31.452,4.997,4.982,-9.132,131.570,172.905
0.311,31.563,4.991,4.983,-9.129,131.654,172.978
0.313,31.662,4.981,4.978,-9.129,131.728,173.042
0.314,31.747,4.967,4.969,-9.130,131.793,173.099
0.315,31.819,4.950,4.954,-9.132,131.845,173.147
0.316,31.878,4.931,4.937,-9.134,131.888,173.188
0.318,31.927,4.913,4.918,-9.133,131.922,173.223
0.319,31.969,4.895,4.899,-9.129,131.952,173.252
0.320,32.008,4.881,4.883,-9.120,131.980,173.277
0.321,32.047,4.870,4.872,-9.105,132.010,173.299
0.323,32.092,4.866,4.866,-9.082,132.043,173.318
0.324,32.146,4.868,4.868,-9.051,132.084,173.336
0.325,32.214,4.879,4.879,-9.010,132.134,173.354
0.326,32.298,4.896,4.897,-8.958,132.198,173.373
0.328,32.402,4.918,4.921,-8.893,132.277,173.394
0.329,32.530,4.946,4.949,-8.814,132.374,173.418
0.330,32.683,4.978,4.982,-8.721,132.492,173.445
0.331,32.855,5.014,5.017,-8.616,132.626,173.475
0.333,33.043,5.052,5.053,-8.502,132.772,173.507
0.334,33.242,5.091,5.090,-8.383,132.927,173.541
0.335,33.445,5.131,5.125,-8.261,133.086,173.575
0.336,33.648,5.170,5.160,-8.140,133.245,173.608
0.338,33.846,5.208,5.192,-8.022,133.401,173.641
0.339,34.033,5.243,5.221,-7.910,133.548,173.672
0.340,34.206,5.274,5.247,-7.808,133.684,173.700
0.341,34.357,5.300,5.270,-7.718,133.803,173.724
0.343,34.483,5.321,5.288,-7.643,133.903,173.744
0.344,34.579,5.335,5.301,-7.587,133.979,173.759
0.345,34.645,5.341,5.308,-7.548,134.032,173.770
0.346,34.687,5.341,5.312,-7.524,134.066,173.776
0.348,34.708,5.336,5.312,-7.513,134.083,173.779
0.349,34.714,5.328,5.308,-7.511,134.089,173.779
0.350,34.721,5.317,5.303,-7.517,134.085,173.777
0.351,34.736,5.305,5.297,-7.528,134.076,173.774
0.353,34.753,5.294,5.291,-7.541,134.064,173.771
0.354,34.770,5.284,5.284,-7.554,134.054,173.767
0.355,34.781,5.276,5.279,-7.564,134.049,173.765
0.356,34.787,5.271,5.276,-7.569,134.052,173.764
0.358,34.802,5.268,5.273,-7.566,134.067,173.766
0.359,34.833,5.268,5.273,-7.554,134.095,173.770
0.360,34.879,5.270,5.274,-7.534,134.135,173.778
0.361,34.936,5.274,5.277,-7.508,134.186,173.788
0.363,35.005,5.280,5.281,-7.478,134.246,173.801
0.364,35.082,5.289,5.289,-7.444,134.313,173.817
0.365,35.165,5.299,5.298,-7.408,134.386,173.835
0.366,35.252,5.312,5.310,-7.372,134.462,173.857
0.368,35.342,5.327,5.324,-7.337,134.542,173.881
0.369,35.433,5.344,5.341,-7.304,134.622,173.907
0.370,35.523,5.363,5.360,-7.275,134.702,173.936
0.371,35.609,5.385,5.382,-7.252,134.779,173.968
0.373,35.692,5.408,5.406,-7.235,134.853,174.003
0.374,35.773,5.433,5.433,-7.223,134.924,174.040
0.375,35.854,5.461,5.463,-7.213,134.993,174.080
0.376,35.937,5.489,5.494,-7.202,135.063,174.122
0.378,36.022,5.517,5.526,-7.188,135.135,174.166
0.379,36.114,5.543,5.556,-7.168,135.211,174.213
0.380,36.213,5.568,5.584,-7.139,135.291,174.263
0.381,36.322,5.588,5.608,-7.098,135.378,174.315
0.383,36.445,5.603,5.627,-7.043,135.474,174.369
0.384,36.584,5.613,5.640,-6.971,135.579,174.426
0.385,36.744,5.616,5.645,-6.879,135.695,174.485
0.386,36.927,5.613,5.645,-6.765,135.825,174.547
0.388,37.134,5.606,5.640,-6.629,135.967,174.611
0.389,37.360,5.598,5.632,-6.475,136.118,174.678
0.390,37.602,5.589,5.622,-6.306,136.276,174.750
0.391,37.854,5.582,5.614,-6.127,136.437,174.825
0.393,38.113,5.578,5.607,-5.943,136.599,174.906
0.394,38.372,5.580,5.604,-5.756,136.758,174.993
0.395,38.630,5.589,5.606,-5.572,136.911,175.085
0.396,38.880,5.604,5.614,-5.394,137.055,175.185
0.398,39.119,5.624,5.627,-5.226,137.188,175.292
0.399,39.344,5.648,5.645,-5.072,137.306,175.408
0.400,39.554,5.676,5.668,-4.937,137.406,175.532
0.401,39.746,5.706,5.695,-4.824,137.486,175.665
0.403,39.925,5.737,5.728,-4.730,137.548,175.805
0.404,40.095,5.767,5.765,-4.655,137.593,175.951
0.405,40.258,5.796,5.806,-4.597,137.625,176.099
0.406,40.415,5.824,5.850,-4.552,137.645,176.249
0.408,40.567,5.849,5.895,-4.520,137.655,176.397
0.409,40.714,5.872,5.940,-4.498,137.659,176.542
0.410,40.854,5.892,5.983,-4.483,137.658,176.682
0.411,40.986,5.909,6.022,-4.475,137.655,176.813
0.413,41.109,5.923,6.056,-4.470,137.652,176.935
0.414,41.219,5.932,6.083,-4.467,137.652,177.046
0.415,41.315,5.938,6.101,-4.464,137.656,177.142
0.416,41.399,5.941,6.112,-4.459,137.665,177.225
0.418,41.474,5.942,6.117,-4.452,137.681,177.298
0.419,41.542,5.942,6.117,-4.443,137.701,177.362
0.420,41.607,5.942,6.115,-4.431,137.726,177.422
0.421,41.673,5.945,6.113,-4.416,137.756,177.478
0.423,41.742,5.950,6.113,-4.398,137.790,177.535
0.424,41.816,5.959,6.116,-4.376,137.828,177.595
0.425,41.899,5.975,6.124,-4.350,137.871,177.660
0.426,41.991,5.995,6.138,-4.319,137.917,177.734
0.428,42.095,6.021,6.157,-4.282,137.967,177.818
0.429,42.214,6.050,6.179,-4.241,138.020,177.916
0.430,42.349,6.082,6.203,-4.194,138.075,178.029
0.431,42.496,6.116,6.228,-4.143,138.133,178.155
0.433,42.652,6.151,6.255,-4.088,138.192,178.289
0.434,42.814,6.187,6.280,-4.032,138.250,178.429
0.435,42.978,6.222,6.304,-3.976,138.308,178.572
0.436,43.140,6.256,6.325,-3.920,138.364,178.713
0.438,43.298,6.288,6.345,-3.865,138.417,178.851
0.439,43.446,6.319,6.363,-3.814,138.466,178.982
0.440,43.582,6.346,6.378,-3.768,138.510,179.102
0.441,43.702,6.371,6.392,-3.727,138.549,179.208
0.443,43.803,6.393,6.404,-3.693,138.581,179.297
0.444,43.881,6.411,6.414,-3.667,138.605,179.366
0.445,43.936,6.425,6.422,-3.649,138.622,179.416
0.446,43.972,6.434,6.429,-3.637,138.632,179.449
0.448,43.992,6.440,6.434,-3.631,138.637,179.466
0.449,43.998,6.442,6.436,-3.630,138.638,179.472
0.450,44.003,6.441,6.437,-3.631,138.636,179.467
0.451,44.017,6.438,6.435,-3.635,138.631,179.455
0.453,44.036,6.432,6.431,-3.640,138.624,179.438
0.454,44.057,6.424,6.423,-3.645,138.618,179.418
0.455,44.079,6.414,6.414,-3.649,138.611,179.398
0.456,44.098,6.403,6.401,-3.650,138.606,179.380
0.458,44.112,6.391,6.388,-3.648,138.604,179.366
0.459,44.122,6.381,6.375,-3.642,138.605,179.358
0.460,44.132,6.371,6.364,-3.632,138.608,179.357
0.461,44.148,6.364,6.356,-3.619,138.613,179.364
0.463,44.172,6.360,6.353,-3.603,138.619,179.380
0.464,44.204,6.359,6.356,-3.584,138.626,179.405
0.465,44.246,6.364,6.366,-3.562,138.634,179.440
0.466,44.298,6.373,6.383,-3.539,138.641,179.486
0.468,44.362,6.386,6.407,-3.513,138.648,179.544
0.469,44.437,6.402,6.436,-3.486,138.653,179.614
0.470,44.524,6.420,6.467,-3.458,138.657,179.697
0.471,44.626,6.439,6.500,-3.430,138.658,179.794
0.473,44.741,6.458,6.532,-3.400,138.656,179.905
0.474,44.868,6.475,6.563,-3.371,138.652,180.029
0.475,45.005,6.490,6.590,-3.340,138.644,180.162
0.476,45.148,6.503,6.612,-3.309,138.634,180.302
0.478,45.296,6.513,6.629,-3.278,138.622,180.446
0.479,45.446,6.520,6.642,-3.245,138.606,180.591
0.480,45.594,6.525,6.650,-3.212,138.589,180.735
0.481,45.739,6.529,6.654,-3.178,138.569,180.874
0.483,45.877,6.531,6.654,-3.144,138.547,181.006
0.484,46.006,6.531,6.650,-3.108,138.523,181.128
0.485,46.125,6.531,6.642,-3.071,138.497,181.237
0.486,46.230,6.529,6.630,-3.033,138.469,181.331
0.488,46.322,6.527,6.616,-2.994,138.439,181.409
0.489,46.404,6.524,6.598,-2.953,138.408,181.473
0.490,46.479,6.520,6.579,-2.910,138.377,181.526
0.491,46.549,6.515,6.558,-2.865,138.345,181.569
0.493,46.617,6.509,6.537,-2.817,138.313,181.606
0.494,46.686,6.502,6.515,-2.765,138.283,181.639
0.495,46.755,6.494,6.494,-2.711,138.253,181.669
0.496,46.827,6.485,6.473,-2.652,138.225,181.700
0.498,46.903,6.474,6.453,-2.589,138.199,181.734
0.499,46.984,6.462,6.434,-2.522,138.176,181.773
0.500,47.072,6.448,6.417,-2.450,138.156,181.819
0.501,47.168,6.430,6.400,-2.373,138.139,181.875
0.503,47.271,6.410,6.385,-2.293,138.125,181.937
0.504,47.377,6.387,6.371,-2.212,138.113,182.005
0.505,47.483,6.360,6.359,-2.132,138.102,182.074
0.506,47.586,6.329,6.348,-2.056,138.091,182.142
0.508,47.682,6.296,6.339,-1.986,138.080,182.207
0.509,47.768,6.262,6.330,-1.925,138.068,182.267
0.510,47.842,6.229,6.322,-1.873,138.054,182.318
0.511,47.899,6.200,6.315,-1.835,138.038,182.357
0.513,47.940,6.175,6.308,-1.811,138.018,182.383
0.514,47.967,6.157,6.301,-1.805,137.994,182.393
