"T","Distance","Radius","FreeRadius","X","Y","Z"
0.000,0.000,3.390,3.390,-21.609,117.164,162.158
0.001,0.038,3.366,3.366,-21.618,117.131,162.142
0.003,0.075,3.343,3.343,-21.626,117.098,162.125
0.004,0.113,3.321,3.321,-21.634,117.067,162.107
0.005,0.150,3.302,3.302,-21.643,117.037,162.086
0.006,0.187,3.287,3.287,-21.651,117.009,162.063
0.008,0.225,3.275,3.275,-21.659,116.984,162.036
0.009,0.264,3.268,3.268,-21.667,116.962,162.005
0.010,0.306,3.268,3.268,-21.676,116.944,161.968
0.012,0.351,3.273,3.273,-21.684,116.930,161.926
0.013,0.401,3.285,3.285,-21.692,116.920,161.877
0.014,0.458,3.302,3.302,-21.700,116.916,161.820
0.016,0.523,3.325,3.325,-21.707,116.918,161.756
0.017,0.594,3.353,3.353,-21.715,116.925,161.686
0.018,0.671,3.385,3.385,-21.722,116.938,161.610
0.019,0.752,3.422,3.422,-21.729,116.954,161.532
0.021,0.834,3.463,3.463,-21.736,116.975,161.452
0.022,0.917,3.508,3.508,-21.741,116.999,161.373
0.023,0.998,3.555,3.555,-21.746,117.027,161.297
0.025,1.076,3.603,3.603,-21.750,117.056,161.225
0.026,1.149,3.651,3.651,-21.753,117.088,161.160
0.027,1.215,3.697,3.697,-21.754,117.121,161.102
0.029,1.273,3.741,3.741,-21.755,117.155,161.055
0.030,1.323,3.782,3.782,-21.754,117.190,161.019
0.031,1.365,3.818,3.818,-21.751,117.224,160.995
0.032,1.402,3.849,3.849,-21.748,117.258,160.980
0.034,1.436,3.875,3.875,-21.743,117.291,160.974
0.035,1.468,3.897,3.897,-21.738,117.322,160.974
0.036,1.497,3.915,3.915,-21.733,117.351,160.979
0.038,1.525,3.930,3.930,-21.727,117.377,160.987
0.039,1.551,3.941,3.941,-21.722,117.400,160.996
0.040,1.572,3.950,3.950,-21.716,117.419,161.005
0.042,1.589,3.955,3.955,-21.712,117.433,161.012
0.043,1.600,3.959,3.959,-21.707,117.443,161.016
0.044,1.606,3.961,3.961,-21.704,117.447,161.015
0.045,1.613,3.962,3.962,-21.702,117.446,161.008
0.047,1.624,3.961,3.961,-21.700,117.442,160.998
0.048,1.637,3.960,3.960,-21.699,117.435,160.987
0.049,1.650,3.958,3.958,-21.699,117.428,160.976
0.051,1.661,3.957,3.957,-21.698,117.422,160.967
0.052,1.667,3.955,3.955,-21.698,117.418,160.962
0.053,1.668,3.955,3.955,-21.698,117.419,160.962
0.054,1.678,3.956,3.956,-21.698,117.425,160.970
0.056,1.699,3.959,3.959,-21.698,117.437,160.988
0.057,1.735,3.965,3.965,-21.697,117.458,161.016
0.058,1.786,3.974,3.974,-21.695,117.490,161.057
0.060,1.855,3.986,3.986,-21.692,117.531,161.112
0.061,1.939,4.004,4.004,-21.688,117.582,161.178
0.062,2.035,4.026,4.026,-21.681,117.640,161.254
0.064,2.140,4.051,4.051,-21.671,117.704,161.337
0.065,2.253,4.078,4.078,-21.656,117.773,161.426
0.066,2.372,4.106,4.106,-21.636,117.845,161.518
0.067,2.494,4.135,4.135,-21.611,117.919,161.611
0.069,2.616,4.161,4.161,-21.579,117.993,161.704
0.070,2.739,4.185,4.185,-21.540,118.065,161.794
0.071,2.858,4.206,4.206,-21.492,118.135,161.879
0.073,2.975,4.222,4.222,-21.436,118.201,161.958
0.074,3.089,4.236,4.236,-21.370,118.261,162.028
0.075,3.200,4.250,4.250,-21.298,118.317,162.092
0.077,3.311,4.263,4.263,-21.221,118.371,162.150
0.078,3.421,4.278,4.278,-21.141,118.423,162.205
0.079,3.529,4.296,4.296,-21.062,118.476,162.258
0.080,3.637,4.318,4.318,-20.985,118.530,162.310
0.082,3.743,4.346,4.346,-20.913,118.586,162.363
0.083,3.848,4.379,4.379,-20.847,118.647,162.418
0.084,3.954,4.417,4.417,-20.791,118.713,162.478
0.086,4.061,4.460,4.460,-20.747,118.787,162.544
0.087,4.175,4.507,4.507,-20.717,118.868,162.616
0.088,4.297,4.557,4.557,-20.702,118.959,162.698
0.089,4.429,4.610,4.610,-20.701,119.057,162.785
0.091,4.569,4.665,4.665,-20.711,119.162,162.878
0.092,4.714,4.722,4.722,-20.728,119.271,162.972
0.093,4.862,4.778,4.778,-20.751,119.382,163.066
0.095,5.008,4.833,4.833,-20.776,119.494,163.157
0.096,5.151,4.884,4.884,-20.799,119.605,163.243
0.097,5.286,4.930,4.930,-20.820,119.712,163.323
0.099,5.410,4.969,4.969,-20.833,119.815,163.392
0.100,5.523,4.999,4.999,-20.837,119.911,163.450
0.101,5.621,5.019,5.019,-20.828,119.998,163.494
0.102,5.706,5.027,5.027,-20.804,120.076,163.521
0.104,5.784,5.026,5.026,-20.766,120.143,163.533
0.105,5.862,5.018,5.018,-20.715,120.201,163.533
0.106,5.942,5.005,5.005,-20.654,120.251,163.524
0.108,6.026,4.989,4.989,-20.583,120.294,163.507
0.109,6.115,4.973,4.973,-20.505,120.332,163.485
0.110,6.207,4.960,4.960,-20.422,120.364,163.462
0.112,6.301,4.950,4.950,-20.335,120.392,163.439
0.113,6.395,4.947,4.947,-20.247,120.416,163.419
0.114,6.487,4.948,4.948,-20.159,120.439,163.406
0.115,6.575,4.952,4.952,-20.074,120.461,163.400
0.117,6.660,4.960,4.960,-19.992,120.483,163.406
0.118,6.741,4.969,4.969,-19.915,120.504,163.422
0.119,6.818,4.980,4.980,-19.845,120.526,163.444
0.121,6.890,4.990,4.990,-19.781,120.548,163.470
0.122,6.956,4.999,4.999,-19.725,120.570,163.496
0.123,7.013,5.006,5.006,-19.677,120.592,163.519
0.125,7.060,5.010,5.010,-19.639,120.613,163.536
0.126,7.096,5.010,5.010,-19.610,120.634,163.543
0.127,7.125,5.004,5.004,-19.592,120.655,163.536
0.128,7.156,4.991,4.992,-19.585,120.675,163.513
0.130,7.203,4.971,4.971,-19.591,120.694,163.471
0.131,7.273,4.942,4.942,-19.610,120.712,163.405
0.132,7.366,4.903,4.903,-19.639,120.730,163.319
0.134,7.471,4.855,4.854,-19.673,120.751,163.222
0.135,7.578,4.799,4.798,-19.704,120.775,163.123
0.136,7.677,4.737,4.736,-19.728,120.804,163.031
0.137,7.762,4.670,4.669,-19.738,120.841,162.955
0.139,7.830,4.601,4.600,-19.727,120.888,162.906
0.140,7.900,4.529,4.529,-19.690,120.946,162.893
0.141,8.005,4.458,4.458,-19.620,121.017,162.925
0.143,8.169,4.389,4.390,-19.510,121.103,163.011
0.144,8.408,4.325,4.328,-19.355,121.206,163.161
0.145,8.736,4.272,4.276,-19.148,121.328,163.384
0.147,9.155,4.234,4.239,-18.888,121.469,163.682
0.148,9.652,4.216,4.221,-18.584,121.626,164.042
0.149,10.211,4.223,4.227,-18.244,121.797,164.451
0.150,10.813,4.258,4.260,-17.878,121.978,164.893
0.152,11.442,4.326,4.326,-17.495,122.167,165.356
0.153,12.082,4.430,4.424,-17.104,122.360,165.824
0.154,12.715,4.561,4.550,-16.714,122.554,166.284
0.156,13.325,4.711,4.695,-16.335,122.746,166.721
0.157,13.895,4.872,4.853,-15.976,122.934,167.121
0.158,14.409,5.036,5.017,-15.646,123.114,167.471
0.160,14.850,5.194,5.178,-15.354,123.283,167.756
0.161,15.210,5.339,5.331,-15.107,123.439,167.966
0.162,15.498,5.461,5.468,-14.902,123.581,168.108
0.163,15.724,5.559,5.584,-14.735,123.710,168.191
0.165,15.903,5.634,5.682,-14.602,123.826,168.222
0.166,16.048,5.690,5.762,-14.500,123.929,168.212
0.167,16.174,5.729,5.825,-14.424,124.019,168.168
0.169,16.290,5.756,5.872,-14.371,124.096,168.099
0.170,16.402,5.773,5.904,-14.335,124.160,168.015
0.171,16.509,5.784,5.923,-14.314,124.212,167.923
0.173,16.607,5.792,5.929,-14.303,124.251,167.834
0.174,16.691,5.798,5.926,-14.299,124.278,167.754
0.175,16.755,5.803,5.914,-14.297,124.293,167.693
0.176,16.799,5.807,5.897,-14.297,124.298,167.649
0.178,16.827,5.812,5.878,-14.296,124.297,167.620
0.179,16.843,5.817,5.860,-14.295,124.292,167.605
0.180,16.851,5.823,5.844,-14.292,124.287,167.601
0.182,16.858,5.831,5.834,-14.286,124.284,167.605
0.183,16.873,5.842,5.832,-14.276,124.286,167.615
0.184,16.895,5.854,5.838,-14.262,124.297,167.629
0.185,16.928,5.869,5.851,-14.243,124.319,167.645
0.187,16.975,5.887,5.870,-14.217,124.355,167.659
0.188,17.040,5.907,5.893,-14.183,124.409,167.670
0.189,17.124,5.929,5.920,-14.141,124.482,167.676
0.191,17.228,5.953,5.949,-14.092,124.574,167.677
0.192,17.348,5.980,5.980,-14.037,124.680,167.673
0.193,17.481,6.009,6.011,-13.978,124.799,167.664
0.195,17.622,6.040,6.042,-13.916,124.925,167.653
0.196,17.768,6.071,6.073,-13.853,125.056,167.640
0.197,17.915,6.103,6.104,-13.790,125.188,167.625
0.198,18.058,6.134,6.134,-13.730,125.317,167.610
0.200,18.195,6.163,6.163,-13.673,125.441,167.596
0.201,18.322,6.191,6.190,-13.621,125.555,167.582
0.202,18.434,6.216,6.217,-13.576,125.657,167.571
0.204,18.527,6.238,6.241,-13.539,125.743,167.563
0.205,18.602,6.257,6.264,-13.511,125.812,167.557
0.206,18.660,6.273,6.285,-13.490,125.866,167.555
0.208,18.703,6.286,6.304,-13.476,125.907,167.554
0.209,18.734,6.296,6.321,-13.467,125.936,167.556
0.210,18.755,6.304,6.335,-13.462,125.956,167.560
0.211,18.768,6.309,6.347,-13.461,125.968,167.564
0.213,18.776,6.311,6.356,-13.462,125.974,167.570
0.214,18.783,6.312,6.362,-13.464,125.976,167.576
0.215,18.790,6.310,6.366,-13.466,125.975,167.583
0.217,18.797,6.307,6.369,-13.467,125.974,167.589
0.218,18.802,6.304,6.370,-13.467,125.974,167.595
0.219,18.808,6.300,6.372,-13.464,125.975,167.600
0.220,18.815,6.295,6.373,-13.459,125.978,167.604
0.222,18.823,6.291,6.374,-13.453,125.982,167.607
0.223,18.832,6.288,6.376,-13.446,125.987,167.609
0.224,18.841,6.286,6.379,-13.439,125.992,167.611
0.226,18.851,6.285,6.383,-13.431,125.998,167.611
0.227,18.859,6.285,6.386,-13.424,126.002,167.610
0.228,18.867,6.286,6.389,-13.418,126.006,167.608
0.230,18.873,6.288,6.391,-13.413,126.009,167.605
0.231,18.879,6.291,6.392,-13.410,126.009,167.601
0.232,18.885,6.296,6.390,-13.409,126.008,167.595
0.233,18.892,6.302,6.387,-13.410,126.005,167.588
0.235,18.902,6.308,6.381,-13.413,126.000,167.580
0.236,18.912,6.314,6.375,-13.418,125.994,167.573
0.237,18.922,6.320,6.368,-13.422,125.989,167.566
0.239,18.930,6.324,6.361,-13.426,125.984,167.561
0.240,18.935,6.325,6.355,-13.428,125.982,167.557
0.241,18.936,6.324,6.351,-13.428,125.982,167.556
0.243,18.941,6.319,6.349,-13.426,125.986,167.559
0.244,18.953,6.310,6.349,-13.420,125.994,167.565
0.245,18.973,6.297,6.350,-13.409,126.008,167.575
0.246,19.002,6.281,6.353,-13.393,126.027,167.591
0.248,19.042,6.263,6.354,-13.372,126.053,167.612
0.249,19.090,6.242,6.355,-13.346,126.084,167.637
0.250,19.144,6.220,6.352,-13.316,126.120,167.666
0.252,19.203,6.197,6.347,-13.284,126.157,167.698
0.253,19.264,6.174,6.336,-13.250,126.196,167.731
0.254,19.326,6.152,6.321,-13.216,126.235,167.764
0.256,19.385,6.130,6.303,-13.183,126.272,167.797
0.257,19.441,6.110,6.283,-13.151,126.306,167.828
0.258,19.491,6.093,6.262,-13.122,126.335,167.856
0.259,19.533,6.078,6.243,-13.098,126.358,167.881
0.261,19.565,6.067,6.226,-13.078,126.374,167.900
0.262,19.586,6.061,6.214,-13.064,126.382,167.914
0.263,19.600,6.059,6.208,-13.054,126.383,167.924
0.265,19.612,6.061,6.206,-13.044,126.383,167.931
0.266,19.625,6.063,6.205,-13.032,126.384,167.938
0.267,19.645,6.062,6.202,-13.015,126.390,167.945
0.268,19.676,6.054,6.193,-12.989,126.404,167.956
0.270,19.725,6.035,6.175,-12.952,126.431,167.971
0.271,19.795,6.002,6.144,-12.901,126.473,167.993
0.272,19.892,5.952,6.096,-12.832,126.535,168.024
0.274,20.022,5.882,6.029,-12.743,126.620,168.065
0.275,20.189,5.793,5.945,-12.630,126.731,168.118
0.276,20.398,5.691,5.846,-12.491,126.872,168.185
0.278,20.645,5.580,5.739,-12.328,127.040,168.265
0.279,20.923,5.467,5.626,-12.146,127.229,168.355
0.280,21.222,5.355,5.512,-11.951,127.434,168.453
0.281,21.536,5.249,5.401,-11.747,127.649,168.556
0.283,21.855,5.155,5.298,-11.539,127.867,168.661
0.284,22.172,5.076,5.206,-11.333,128.083,168.766
0.285,22.478,5.013,5.125,-11.133,128.292,168.868
0.287,22.766,4.963,5.056,-10.945,128.487,168.965
0.288,23.027,4.924,4.997,-10.773,128.662,169.054
0.289,23.253,4.895,4.949,-10.623,128.812,169.132
0.291,23.437,4.873,4.912,-10.500,128.931,169.197
0.292,23.577,4.858,4.885,-10.403,129.019,169.249
0.293,23.682,4.846,4.867,-10.330,129.081,169.291
0.294,23.758,4.837,4.859,-10.275,129.123,169.324
0.296,23.813,4.831,4.857,-10.236,129.149,169.352
0.297,23.854,4.825,4.861,-10.208,129.166,169.377
0.298,23.888,4.820,4.868,-10.188,129.178,169.402
0.300,23.922,4.816,4.876,-10.170,129.190,169.428
0.301,23.963,4.811,4.882,-10.153,129.209,169.460
0.302,24.017,4.806,4.885,-10.130,129.239,169.498
0.304,24.091,4.799,4.883,-10.099,129.286,169.547
0.305,24.192,4.790,4.874,-10.055,129.354,169.607
0.306,24.324,4.780,4.861,-9.998,129.447,169.681
0.307,24.480,4.770,4.844,-9.928,129.559,169.765
0.309,24.655,4.759,4.824,-9.850,129.686,169.856
0.310,24.844,4.748,4.804,-9.765,129.824,169.953
0.311,25.040,4.738,4.783,-9.676,129.968,170.051
0.313,25.239,4.730,4.764,-9.585,130.115,170.150
0.314,25.433,4.722,4.748,-9.495,130.260,170.245
0.315,25.619,4.716,4.735,-9.409,130.397,170.335
0.316,25.790,4.712,4.725,-9.329,130.524,170.416
0.318,25.939,4.710,4.717,-9.258,130.636,170.486
0.319,26.063,4.708,4.713,-9.198,130.728,170.543
0.320,26.157,4.708,4.710,-9.151,130.798,170.584
0.322,26.225,4.710,4.710,-9.115,130.848,170.613
0.323,26.272,4.712,4.712,-9.090,130.882,170.632
0.324,26.301,4.716,4.716,-9.073,130.903,170.645
0.326,26.318,4.720,4.721,-9.064,130.914,170.655
0.327,26.329,4.725,4.727,-9.061,130.918,170.664
0.328,26.341,4.730,4.733,-9.063,130.919,170.676
0.329,26.359,4.734,4.738,-9.068,130.919,170.693
0.331,26.386,4.738,4.742,-9.075,130.923,170.719
0.332,26.425,4.741,4.744,-9.083,130.932,170.757
0.333,26.481,4.743,4.743,-9.089,130.951,170.809
0.335,26.557,4.744,4.740,-9.094,130.982,170.878
0.336,26.652,4.743,4.734,-9.094,131.026,170.962
0.337,26.764,4.740,4.728,-9.090,131.083,171.058
0.339,26.892,4.737,4.721,-9.078,131.153,171.165
0.340,27.035,4.733,4.716,-9.058,131.236,171.279
0.341,27.192,4.728,4.713,-9.028,131.333,171.399
0.342,27.362,4.723,4.714,-8.986,131.444,171.521
0.344,27.545,4.717,4.720,-8.931,131.568,171.644
0.345,27.741,4.711,4.731,-8.861,131.707,171.764
0.346,27.952,4.707,4.747,-8.775,131.860,171.879
0.348,28.176,4.707,4.767,-8.672,132.028,171.987
0.349,28.417,4.711,4.792,-8.549,132.210,172.086
0.350,28.671,4.721,4.821,-8.411,132.404,172.175
0.351,28.935,4.739,4.854,-8.260,132.605,172.254
0.353,29.205,4.767,4.889,-8.101,132.811,172.326
0.354,29.474,4.805,4.927,-7.938,133.016,172.390
0.355,29.739,4.854,4.967,-7.776,133.217,172.446
0.357,29.994,4.910,5.008,-7.618,133.411,172.497
0.358,30.234,4.971,5.050,-7.468,133.593,172.541
0.359,30.453,5.032,5.091,-7.332,133.760,172.580
0.361,30.646,5.092,5.131,-7.211,133.907,172.615
0.362,30.808,5.147,5.168,-7.112,134.031,172.646
0.363,30.933,5.193,5.203,-7.038,134.128,172.674
0.364,31.024,5.229,5.234,-6.987,134.199,172.699
0.366,31.086,5.253,5.260,-6.957,134.248,172.721
0.367,31.124,5.268,5.282,-6.943,134.278,172.741
0.368,31.147,5.275,5.299,-6.943,134.294,172.758
0.370,31.165,5.276,5.311,-6.952,134.298,172.772
0.371,31.184,5.272,5.318,-6.967,134.296,172.784
0.372,31.205,5.265,5.319,-6.985,134.290,172.793
0.374,31.223,5.257,5.314,-7.000,134.284,172.800
0.375,31.235,5.250,5.304,-7.011,134.282,172.805
0.376,31.242,5.243,5.290,-7.013,134.288,172.808
0.377,31.262,5.239,5.274,-7.003,134.305,172.809
0.379,31.300,5.238,5.260,-6.979,134.335,172.809
0.380,31.354,5.240,5.251,-6.944,134.376,172.812
0.381,31.422,5.246,5.248,-6.899,134.427,172.819
0.383,31.503,5.257,5.255,-6.846,134.485,172.835
0.384,31.594,5.274,5.274,-6.787,134.550,172.861
0.385,31.697,5.297,5.307,-6.724,134.620,172.901
0.387,31.810,5.324,5.351,-6.658,134.693,172.957
0.388,31.935,5.354,5.401,-6.592,134.768,173.033
0.389,32.075,5.386,5.453,-6.527,134.843,173.131
0.390,32.231,5.417,5.505,-6.464,134.917,173.253
0.392,32.407,5.446,5.550,-6.407,134.988,173.404
0.393,32.604,5.470,5.587,-6.355,135.054,173.582
0.394,32.818,5.490,5.609,-6.309,135.117,173.781
0.396,33.045,5.503,5.617,-6.268,135.176,173.996
0.397,33.278,5.510,5.613,-6.232,135.230,174.220
0.398,33.512,5.513,5.600,-6.201,135.282,174.447
0.399,33.741,5.513,5.582,-6.175,135.329,174.669
0.401,33.960,5.510,5.563,-6.153,135.374,174.882
0.402,34.162,5.506,5.545,-6.134,135.415,175.079
0.403,34.340,5.501,5.532,-6.119,135.452,175.253
0.405,34.490,5.498,5.527,-6.108,135.487,175.398
0.406,34.605,5.495,5.532,-6.099,135.518,175.508
0.407,34.682,5.494,5.544,-6.093,135.547,175.579
0.409,34.728,5.494,5.562,-6.089,135.573,175.617
0.410,34.754,5.496,5.583,-6.085,135.596,175.627
0.411,34.779,5.500,5.607,-6.082,135.619,175.616
0.412,34.813,5.505,5.631,-6.078,135.639,175.589
0.414,34.855,5.513,5.652,-6.073,135.659,175.552
0.415,34.900,5.522,5.671,-6.065,135.679,175.513
0.416,34.943,5.533,5.685,-6.054,135.698,175.476
0.418,34.980,5.546,5.696,-6.040,135.718,175.449
0.419,35.010,5.559,5.704,-6.020,135.738,175.436
0.420,35.045,5.572,5.710,-5.995,135.760,175.445
0.422,35.097,5.586,5.713,-5.964,135.782,175.479
0.423,35.170,5.598,5.716,-5.927,135.807,175.538
0.424,35.264,5.609,5.717,-5.884,135.833,175.618
0.425,35.375,5.619,5.718,-5.837,135.860,175.714
0.427,35.501,5.628,5.719,-5.785,135.890,175.825
0.428,35.637,5.636,5.721,-5.730,135.920,175.946
0.429,35.781,5.643,5.724,-5.672,135.953,176.074
0.431,35.930,5.651,5.730,-5.611,135.986,176.205
0.432,36.079,5.660,5.738,-5.548,136.022,176.335
0.433,36.226,5.670,5.749,-5.484,136.059,176.463
0.435,36.368,5.682,5.765,-5.419,136.097,176.583
0.436,36.502,5.696,5.785,-5.353,136.138,176.693
0.437,36.628,5.712,5.808,-5.288,136.179,176.792
0.438,36.746,5.729,5.834,-5.223,136.222,176.881
0.440,36.858,5.748,5.860,-5.160,136.265,176.962
0.441,36.963,5.768,5.887,-5.098,136.309,177.035
0.442,37.062,5.789,5.912,-5.037,136.352,177.101
0.444,37.156,5.810,5.935,-4.979,136.395,177.161
0.445,37.245,5.831,5.954,-4.924,136.438,177.216
0.446,37.329,5.852,5.969,-4.872,136.479,177.267
0.447,37.408,5.873,5.981,-4.824,136.519,177.315
0.449,37.483,5.893,5.990,-4.779,136.557,177.361
0.450,37.553,5.912,5.998,-4.739,136.593,177.406
0.451,37.618,5.929,6.005,-4.703,136.627,177.449
0.453,37.680,5.945,6.011,-4.672,136.658,177.491
0.454,37.737,5.959,6.019,-4.644,136.687,177.532
0.455,37.790,5.971,6.027,-4.620,136.714,177.571
0.457,37.838,5.981,6.037,-4.599,136.738,177.608
0.458,37.882,5.989,6.047,-4.581,136.759,177.642
0.459,37.922,5.996,6.056,-4.565,136.777,177.673
0.460,37.957,6.001,6.065,-4.552,136.793,177.701
0.462,37.987,6.006,6.071,-4.540,136.805,177.726
0.463,38.012,6.010,6.074,-4.530,136.815,177.747
0.464,38.032,6.014,6.074,-4.522,136.821,177.765
0.466,38.049,6.018,6.069,-4.514,136.825,177.778
0.467,38.063,6.022,6.062,-4.506,136.828,177.790
0.468,38.077,6.027,6.054,-4.497,136.831,177.800
0.470,38.092,6.033,6.048,-4.486,136.836,177.810
0.471,38.112,6.041,6.047,-4.473,136.844,177.821
0.472,38.137,6.051,6.054,-4.456,136.858,177.835
0.473,38.171,6.064,6.071,-4.435,136.877,177.852
0.475,38.215,6.079,6.100,-4.408,136.904,177.874
0.476,38.272,6.098,6.143,-4.375,136.941,177.903
0.477,38.343,6.119,6.197,-4.336,136.988,177.938
0.479,38.431,6.142,6.257,-4.288,137.048,177.982
0.480,38.535,6.165,6.317,-4.233,137.120,178.034
0.481,38.655,6.187,6.375,-4.171,137.202,178.095
0.482,38.785,6.207,6.423,-4.105,137.291,178.163
0.484,38.923,6.224,6.459,-4.037,137.386,178.237
0.485,39.066,6.238,6.477,-3.967,137.483,178.316
0.486,39.211,6.247,6.474,-3.899,137.580,178.399
0.488,39.355,6.253,6.456,-3.834,137.674,178.486
0.489,39.496,6.255,6.425,-3.773,137.764,178.575
0.490,39.629,6.257,6.388,-3.718,137.846,178.666
0.492,39.754,6.257,6.347,-3.672,137.917,178.757
0.493,39.868,6.258,6.309,-3.636,137.977,178.847
0.494,39.971,6.260,6.276,-3.610,138.021,178.937
0.495,40.067,6.263,6.255,-3.594,138.053,179.025
0.497,40.157,6.270,6.245,-3.585,138.073,179.113
0.498,40.246,6.278,6.246,-3.580,138.084,179.201
0.499,40.335,6.287,6.255,-3.577,138.086,179.290
0.501,40.424,6.296,6.268,-3.574,138.082,179.379
0.502,40.516,6.304,6.284,-3.569,138.073,179.470
0.503,40.610,6.311,6.300,-3.559,138.062,179.563
0.505,40.707,6.316,6.314,-3.542,138.049,179.657
0.506,40.808,6.319,6.322,-3.516,138.036,179.755
0.507,40.916,6.318,6.325,-3.479,138.026,179.855
0.508,41.032,6.314,6.323,-3.428,138.019,179.959
0.510,41.155,6.308,6.317,-3.365,138.015,180.065
0.511,41.284,6.300,6.307,-3.293,138.015,180.172
0.512,41.417,6.290,6.295,-3.213,138.017,180.278
0.514,41.551,6.278,6.280,-3.129,138.021,180.382
0.515,41.684,6.265,6.265,-3.042,138.027,180.482
0.516,41.813,6.251,6.249,-2.954,138.034,180.578
0.518,41.936,6.236,6.234,-2.869,138.042,180.666
0.519,42.051,6.220,6.218,-2.789,138.050,180.747
0.520,42.154,6.205,6.203,-2.715,138.058,180.819
0.521,42.243,6.190,6.188,-2.650,138.065,180.879
0.523,42.315,6.176,6.175,-2.597,138.071,180.927
0.524,42.371,6.163,6.163,-2.554,138.076,180.964
0.525,42.414,6.152,6.152,-2.521,138.080,180.990
0.527,42.445,6.143,6.143,-2.496,138.082,181.008
0.528,42.466,6.136,6.136,-2.477,138.083,181.018
0.529,42.481,6.130,6.131,-2.463,138.084,181.023
0.530,42.492,6.126,6.126,-2.452,138.083,181.023
0.532,42.502,6.123,6.123,-2.442,138.081,181.020
0.533,42.513,6.121,6.122,-2.433,138.079,181.015
0.534,42.525,6.121,6.121,-2.422,138.075,181.011
