"T","Distance","Radius","FreeRadius","X","Y","Z"
0.000,0.000,2.916,2.916,239.354,208.616,199.449
0.001,0.174,2.952,2.952,239.473,208.554,199.560
0.003,0.347,2.988,2.988,239.592,208.493,199.670
0.004,0.519,3.025,3.025,239.709,208.433,199.781
0.005,0.689,3.065,3.065,239.823,208.375,199.892
0.007,0.856,3.108,3.108,239.935,208.319,200.002
0.008,1.019,3.154,3.154,240.043,208.265,200.113
0.009,1.179,3.204,3.204,240.147,208.215,200.223
0.010,1.334,3.259,3.259,240.245,208.169,200.334
0.012,1.484,3.320,3.320,240.337,208.127,200.444
0.013,1.628,3.383,3.383,240.423,208.090,200.555
0.014,1.767,3.449,3.449,240.501,208.059,200.665
0.016,1.900,3.516,3.516,240.570,208.033,200.775
0.017,2.027,3.582,3.582,240.631,208.014,200.885
0.018,2.149,3.645,3.645,240.685,208.001,200.995
0.020,2.267,3.704,3.704,240.731,207.992,201.103
0.021,2.381,3.758,3.758,240.771,207.988,201.210
0.022,2.492,3.806,3.806,240.807,207.986,201.314
0.024,2.598,3.850,3.850,240.838,207.987,201.415
0.025,2.700,3.890,3.890,240.867,207.989,201.514
0.026,2.799,3.927,3.927,240.894,207.991,201.608
0.027,2.893,3.962,3.962,240.921,207.994,201.698
0.029,2.982,3.995,3.995,240.947,207.994,201.784
0.030,3.067,4.029,4.029,240.975,207.993,201.864
0.031,3.147,4.063,4.063,241.005,207.989,201.937
0.033,3.222,4.098,4.098,241.038,207.981,202.005
0.034,3.294,4.133,4.133,241.074,207.970,202.066
0.035,3.361,4.168,4.168,241.110,207.956,202.122
0.037,3.424,4.201,4.201,241.146,207.940,202.171
0.038,3.483,4.234,4.234,241.181,207.923,202.214
0.039,3.536,4.265,4.265,241.215,207.904,202.251
0.041,3.584,4.294,4.294,241.245,207.884,202.283
0.042,3.626,4.320,4.320,241.271,207.864,202.309
0.043,3.662,4.344,4.344,241.292,207.844,202.329
0.044,3.690,4.365,4.365,241.307,207.825,202.344
0.046,3.712,4.384,4.384,241.314,207.807,202.354
0.047,3.729,4.400,4.400,241.314,207.790,202.358
0.048,3.746,4.414,4.414,241.305,207.776,202.358
0.050,3.765,4.424,4.424,241.290,207.764,202.354
0.051,3.788,4.432,4.432,241.271,207.755,202.348
0.052,3.810,4.437,4.437,241.250,207.748,202.341
0.054,3.832,4.440,4.440,241.230,207.744,202.334
0.055,3.849,4.440,4.440,241.213,207.744,202.329
0.056,3.861,4.439,4.439,241.202,207.747,202.327
0.058,3.868,4.435,4.435,241.199,207.753,202.330
0.059,3.883,4.430,4.430,241.207,207.763,202.338
0.060,3.912,4.423,4.423,241.227,207.777,202.354
0.061,3.959,4.416,4.416,241.262,207.795,202.377
0.063,4.025,4.408,4.408,241.316,207.817,202.411
0.064,4.113,4.400,4.400,241.387,207.844,202.455
0.065,4.219,4.393,4.393,241.475,207.874,202.507
0.067,4.340,4.387,4.387,241.574,207.907,202.566
0.068,4.471,4.384,4.384,241.684,207.942,202.629
0.069,4.609,4.385,4.385,241.799,207.977,202.695
0.071,4.749,4.389,4.389,241.918,208.013,202.762
0.072,4.889,4.398,4.398,242.036,208.048,202.827
0.073,5.024,4.410,4.410,242.151,208.082,202.890
0.075,5.150,4.425,4.425,242.259,208.114,202.947
0.076,5.264,4.441,4.441,242.358,208.142,202.997
0.077,5.362,4.456,4.456,242.443,208.166,203.038
0.078,5.441,4.471,4.471,242.513,208.186,203.068
0.080,5.497,4.483,4.483,242.564,208.200,203.087
0.081,5.536,4.491,4.491,242.601,208.210,203.095
0.082,5.559,4.495,4.495,242.623,208.215,203.096
0.084,5.573,4.495,4.495,242.635,208.218,203.091
0.085,5.582,4.492,4.492,242.639,208.218,203.083
0.086,5.592,4.488,4.488,242.637,208.216,203.073
0.088,5.604,4.482,4.482,242.631,208.213,203.063
0.089,5.614,4.476,4.476,242.623,208.209,203.057
0.090,5.622,4.471,4.471,242.617,208.205,203.055
0.092,5.628,4.468,4.468,242.615,208.203,203.060
0.093,5.642,4.467,4.467,242.619,208.201,203.074
0.094,5.670,4.468,4.468,242.631,208.202,203.099
0.095,5.713,4.469,4.469,242.653,208.205,203.135
0.097,5.769,4.471,4.471,242.685,208.209,203.181
0.098,5.837,4.473,4.473,242.726,208.213,203.235
0.099,5.914,4.474,4.474,242.777,208.216,203.293
0.101,6.000,4.474,4.474,242.837,208.217,203.355
0.102,6.093,4.473,4.473,242.906,208.214,203.417
0.103,6.191,4.469,4.469,242.983,208.206,203.477
0.105,6.294,4.463,4.463,243.068,208.193,203.534
0.106,6.402,4.454,4.454,243.162,208.172,203.584
0.107,6.515,4.440,4.440,243.263,208.143,203.625
0.108,6.634,4.422,4.422,243.372,208.105,203.656
0.110,6.761,4.398,4.398,243.487,208.057,203.673
0.111,6.898,4.369,4.369,243.611,207.997,203.677
0.112,7.046,4.334,4.334,243.741,207.928,203.667
0.114,7.207,4.295,4.295,243.880,207.851,203.645
0.115,7.379,4.252,4.252,244.028,207.767,203.613
0.116,7.565,4.209,4.209,244.185,207.678,203.571
0.118,7.762,4.166,4.166,244.352,207.585,203.520
0.119,7.972,4.126,4.126,244.529,207.489,203.463
0.120,8.193,4.089,4.089,244.717,207.392,203.398
0.122,8.425,4.059,4.059,244.916,207.296,203.329
0.123,8.668,4.035,4.035,245.127,207.201,203.256
0.124,8.921,4.019,4.019,245.351,207.108,203.181
0.125,9.185,4.011,4.011,245.587,207.020,203.103
0.127,9.458,4.011,4.011,245.835,206.938,203.026
0.128,9.736,4.020,4.020,246.091,206.860,202.948
0.129,10.017,4.037,4.037,246.352,206.787,202.873
0.131,10.296,4.064,4.064,246.613,206.720,202.800
0.132,10.571,4.100,4.100,246.871,206.657,202.730
0.133,10.836,4.144,4.144,247.122,206.600,202.666
0.135,11.090,4.194,4.194,247.362,206.547,202.607
0.136,11.327,4.246,4.246,247.589,206.499,202.555
0.137,11.544,4.298,4.298,247.797,206.456,202.510
0.139,11.738,4.347,4.347,247.984,206.418,202.475
0.140,11.905,4.391,4.391,248.145,206.384,202.449
0.141,12.041,4.426,4.426,248.278,206.355,202.434
0.142,12.146,4.450,4.450,248.380,206.330,202.430
0.144,12.224,4.465,4.465,248.455,206.310,202.434
0.145,12.278,4.471,4.471,248.506,206.295,202.445
0.146,12.313,4.470,4.470,248.535,206.283,202.460
0.148,12.335,4.464,4.464,248.545,206.275,202.478
0.149,12.355,4.455,4.455,248.539,206.271,202.496
0.150,12.380,4.445,4.445,248.520,206.270,202.513
0.152,12.412,4.434,4.434,248.491,206.274,202.526
0.153,12.449,4.425,4.425,248.455,206.280,202.533
0.154,12.491,4.418,4.418,248.414,206.289,202.533
0.156,12.537,4.412,4.412,248.371,206.302,202.522
0.157,12.586,4.408,4.408,248.330,206.317,202.500
0.158,12.639,4.405,4.405,248.292,206.334,202.468
0.159,12.693,4.403,4.403,248.259,206.352,202.429
0.161,12.743,4.402,4.402,248.233,206.368,202.390
0.162,12.785,4.402,4.402,248.217,206.381,202.353
0.163,12.814,4.403,4.403,248.211,206.388,202.326
0.165,12.831,4.406,4.406,248.218,206.390,202.311
0.166,12.854,4.414,4.414,248.240,206.382,202.314
0.167,12.903,4.427,4.427,248.279,206.365,202.339
0.169,12.986,4.446,4.446,248.336,206.336,202.392
0.170,13.108,4.473,4.473,248.413,206.293,202.476
0.171,13.276,4.509,4.509,248.512,206.235,202.598
0.173,13.493,4.556,4.556,248.636,206.160,202.760
0.174,13.759,4.613,4.613,248.782,206.069,202.963
0.175,14.065,4.681,4.681,248.946,205.964,203.199
0.176,14.404,4.758,4.758,249.126,205.847,203.461
0.178,14.765,4.844,4.844,249.316,205.722,203.743
0.179,15.142,4.939,4.939,249.512,205.591,204.037
0.180,15.526,5.042,5.042,249.710,205.457,204.337
0.182,15.908,5.152,5.152,249.907,205.322,204.635
0.183,16.280,5.269,5.269,250.098,205.189,204.925
0.184,16.633,5.391,5.391,250.278,205.060,205.199
0.186,16.959,5.513,5.513,250.445,204.939,205.452
0.187,17.250,5.632,5.632,250.593,204.827,205.675
0.188,17.497,5.746,5.746,250.720,204.727,205.863
0.190,17.699,5.852,5.852,250.823,204.640,206.014
0.191,17.861,5.945,5.945,250.906,204.566,206.131
0.192,17.987,6.023,6.023,250.970,204.502,206.219
0.193,18.081,6.084,6.084,251.017,204.448,206.281
0.195,18.150,6.130,6.130,251.050,204.403,206.320
0.196,18.197,6.163,6.163,251.070,204.366,206.341
0.197,18.229,6.184,6.184,251.081,204.336,206.346
0.199,18.253,6.197,6.197,251.083,204.312,206.341
0.200,18.277,6.203,6.203,251.079,204.293,206.327
0.201,18.301,6.205,6.205,251.072,204.278,206.310
0.203,18.324,6.204,6.204,251.063,204.266,206.292
0.204,18.344,6.202,6.202,251.054,204.256,206.278
0.205,18.359,6.200,6.200,251.047,204.248,206.268
0.207,18.370,6.197,6.197,251.041,204.241,206.262
0.208,18.377,6.195,6.195,251.037,204.236,206.259
0.209,18.381,6.193,6.193,251.035,204.232,206.260
0.210,18.385,6.192,6.192,251.035,204.230,206.263
0.212,18.391,6.193,6.193,251.038,204.229,206.268
0.213,18.400,6.195,6.195,251.044,204.230,206.275
0.214,18.412,6.199,6.199,251.052,204.232,206.283
0.216,18.428,6.205,6.205,251.064,204.236,206.292
0.217,18.446,6.212,6.212,251.079,204.241,206.302
0.218,18.468,6.219,6.219,251.098,204.248,206.311
0.220,18.493,6.227,6.227,251.120,204.256,206.319
0.221,18.522,6.236,6.236,251.146,204.265,206.327
0.222,18.553,6.244,6.244,251.174,204.276,206.334
0.224,18.586,6.252,6.252,251.205,204.287,206.341
0.225,18.620,6.260,6.260,251.237,204.298,206.347
0.226,18.655,6.267,6.267,251.269,204.310,206.352
0.227,18.689,6.273,6.274,251.301,204.321,206.357
0.229,18.723,6.280,6.280,251.332,204.333,206.362
0.230,18.755,6.285,6.286,251.362,204.343,206.366
0.231,18.784,6.290,6.291,251.389,204.353,206.371
0.233,18.810,6.295,6.295,251.413,204.361,206.375
0.234,18.831,6.299,6.298,251.433,204.368,206.379
0.235,18.849,6.302,6.301,251.449,204.373,206.383
0.237,18.861,6.304,6.304,251.461,204.376,206.387
0.238,18.870,6.306,6.305,251.469,204.378,206.391
0.239,18.877,6.308,6.307,251.474,204.379,206.395
0.241,18.882,6.308,6.307,251.476,204.378,206.400
0.242,18.887,6.308,6.308,251.477,204.376,206.404
0.243,18.892,6.307,6.308,251.476,204.374,206.409
0.244,18.898,6.306,6.308,251.475,204.371,206.414
0.246,18.904,6.305,6.308,251.474,204.368,206.419
0.247,18.911,6.305,6.308,251.474,204.364,206.425
0.248,18.918,6.305,6.309,251.475,204.361,206.431
0.250,18.925,6.307,6.310,251.478,204.357,206.437
0.251,18.935,6.310,6.313,251.483,204.354,206.444
0.252,18.946,6.316,6.316,251.492,204.352,206.451
0.254,18.961,6.324,6.321,251.503,204.348,206.461
0.255,18.979,6.334,6.328,251.516,204.345,206.472
0.256,19.001,6.346,6.335,251.533,204.340,206.486
0.258,19.028,6.357,6.344,251.552,204.334,206.504
0.259,19.059,6.369,6.354,251.573,204.326,206.525
0.260,19.096,6.378,6.366,251.597,204.316,206.551
0.261,19.140,6.386,6.378,251.624,204.304,206.583
0.263,19.189,6.391,6.392,251.653,204.288,206.620
0.264,19.247,6.392,6.406,251.685,204.269,206.664
0.265,19.312,6.390,6.421,251.719,204.247,206.716
0.267,19.386,6.386,6.435,251.755,204.221,206.774
0.268,19.468,6.382,6.448,251.794,204.191,206.840
0.269,19.556,6.377,6.459,251.834,204.158,206.911
0.271,19.649,6.374,6.468,251.875,204.122,206.987
0.272,19.746,6.372,6.474,251.917,204.084,207.065
0.273,19.845,6.373,6.476,251.960,204.044,207.145
0.275,19.945,6.377,6.475,252.002,204.003,207.226
0.276,20.044,6.384,6.470,252.045,203.962,207.305
0.277,20.141,6.393,6.464,252.086,203.920,207.383
0.278,20.235,6.403,6.457,252.126,203.879,207.457
0.280,20.323,6.414,6.450,252.165,203.839,207.526
0.281,20.406,6.425,6.444,252.201,203.801,207.589
0.282,20.481,6.436,6.440,252.235,203.764,207.644
0.284,20.549,6.445,6.439,252.268,203.729,207.693
0.285,20.612,6.454,6.441,252.299,203.696,207.737
0.286,20.671,6.461,6.446,252.330,203.665,207.777
0.288,20.728,6.467,6.451,252.361,203.635,207.813
0.289,20.783,6.471,6.458,252.394,203.607,207.848
0.290,20.840,6.474,6.465,252.429,203.580,207.883
0.292,20.897,6.476,6.471,252.467,203.554,207.918
0.293,20.959,6.476,6.475,252.509,203.530,207.955
0.294,21.024,6.474,6.478,252.555,203.506,207.995
0.295,21.097,6.471,6.479,252.607,203.483,208.040
0.297,21.177,6.467,6.478,252.665,203.460,208.091
0.298,21.265,6.461,6.476,252.730,203.439,208.148
0.299,21.362,6.453,6.472,252.800,203.418,208.210
0.301,21.464,6.444,6.467,252.873,203.398,208.278
0.302,21.569,6.434,6.461,252.949,203.379,208.348
0.303,21.674,6.422,6.455,253.025,203.361,208.419
0.305,21.779,6.408,6.448,253.099,203.345,208.491
0.306,21.880,6.394,6.441,253.170,203.331,208.562
0.307,21.975,6.379,6.433,253.235,203.319,208.630
0.308,22.063,6.365,6.424,253.294,203.309,208.694
0.310,22.140,6.352,6.414,253.343,203.302,208.753
0.311,22.205,6.341,6.403,253.382,203.297,208.805
0.312,22.256,6.331,6.391,253.409,203.296,208.849
0.314,22.293,6.325,6.378,253.422,203.297,208.883
0.315,22.320,6.322,6.364,253.424,203.300,208.910
0.316,22.341,6.320,6.350,253.418,203.305,208.929
0.318,22.360,6.319,6.336,253.407,203.309,208.944
0.319,22.377,6.319,6.325,253.394,203.313,208.954
0.320,22.391,6.318,6.316,253.382,203.315,208.962
0.322,22.401,6.316,6.310,253.375,203.315,208.970
0.323,22.411,6.312,6.309,253.376,203.310,208.978
0.324,22.429,6.304,6.313,253.387,203.301,208.988
0.325,22.462,6.293,6.321,253.413,203.286,209.003
0.327,22.514,6.279,6.330,253.456,203.264,209.022
0.328,22.588,6.262,6.339,253.518,203.234,209.048
0.329,22.687,6.241,6.345,253.604,203.195,209.082
0.331,22.809,6.218,6.345,253.709,203.150,209.123
0.332,22.949,6.191,6.338,253.830,203.098,209.169
0.333,23.103,6.160,6.321,253.964,203.041,209.220
0.335,23.267,6.127,6.292,254.107,202.980,209.273
0.336,23.436,6.092,6.254,254.255,202.918,209.328
0.337,23.608,6.055,6.209,254.404,202.855,209.384
0.339,23.776,6.018,6.159,254.550,202.793,209.438
0.340,23.938,5.983,6.106,254.691,202.732,209.490
0.341,24.088,5.949,6.054,254.822,202.675,209.538
0.342,24.224,5.918,6.004,254.939,202.622,209.581
0.344,24.340,5.892,5.960,255.039,202.576,209.617
0.345,24.434,5.869,5.921,255.120,202.536,209.647
0.346,24.509,5.851,5.888,255.183,202.503,209.669
0.348,24.569,5.835,5.860,255.231,202.473,209.687
0.349,24.616,5.820,5.836,255.268,202.446,209.701
0.350,24.656,5.806,5.814,255.296,202.420,209.711
0.352,24.692,5.792,5.795,255.318,202.393,209.721
0.353,24.728,5.776,5.777,255.338,202.364,209.730
0.354,24.768,5.758,5.759,255.359,202.332,209.739
0.356,24.815,5.738,5.740,255.383,202.294,209.751
0.357,24.871,5.714,5.721,255.413,202.249,209.767
0.358,24.941,5.688,5.700,255.454,202.196,209.787
0.359,25.027,5.660,5.677,255.507,202.132,209.813
0.361,25.133,5.631,5.651,255.574,202.058,209.845
0.362,25.255,5.599,5.622,255.654,201.974,209.884
0.363,25.390,5.565,5.590,255.744,201.884,209.927
0.365,25.535,5.530,5.554,255.842,201.787,209.974
0.366,25.687,5.494,5.514,255.945,201.688,210.025
0.367,25.841,5.458,5.473,256.050,201.587,210.077
0.369,25.996,5.420,5.432,256.155,201.488,210.131
0.370,26.146,5.383,5.391,256.257,201.391,210.185
0.371,26.290,5.345,5.353,256.355,201.299,210.238
0.373,26.424,5.308,5.319,256.444,201.214,210.289
0.374,26.544,5.272,5.290,256.523,201.138,210.337
0.375,26.647,5.237,5.266,256.590,201.074,210.382
0.376,26.731,5.202,5.247,256.642,201.021,210.422
0.378,26.801,5.167,5.229,256.684,200.979,210.459
0.379,26.860,5.133,5.212,256.719,200.945,210.493
0.380,26.914,5.097,5.192,256.752,200.918,210.525
0.382,26.966,5.061,5.167,256.786,200.896,210.557
0.383,27.020,5.023,5.136,256.826,200.876,210.589
0.384,27.082,4.984,5.097,256.875,200.856,210.621
0.386,27.157,4.942,5.048,256.937,200.835,210.656
0.387,27.248,4.899,4.992,257.018,200.810,210.693
0.388,27.362,4.856,4.932,257.119,200.780,210.734
0.390,27.502,4.812,4.869,257.246,200.742,210.779
0.391,27.674,4.768,4.806,257.403,200.695,210.830
0.392,27.879,4.724,4.744,257.591,200.636,210.888
0.393,28.115,4.682,4.687,257.807,200.566,210.952
0.395,28.379,4.642,4.635,258.047,200.485,211.024
0.396,28.666,4.604,4.592,258.308,200.392,211.104
0.397,28.975,4.571,4.556,258.584,200.286,211.193
0.399,29.301,4.544,4.530,258.872,200.169,211.291
0.400,29.641,4.524,4.513,259.168,200.040,211.399
0.401,29.993,4.514,4.507,259.467,199.899,211.517
0.403,30.354,4.516,4.512,259.766,199.745,211.647
0.404,30.720,4.529,4.529,260.061,199.579,211.788
0.405,31.091,4.557,4.558,260.348,199.400,211.941
0.407,31.465,4.597,4.599,260.622,199.209,212.108
0.408,31.839,4.649,4.651,260.880,199.005,212.286
0.409,32.212,4.711,4.711,261.123,198.793,212.474
0.410,32.579,4.780,4.780,261.348,198.576,212.667
0.412,32.937,4.856,4.855,261.555,198.358,212.861
0.413,33.283,4.936,4.935,261.744,198.142,213.053
0.414,33.611,5.019,5.020,261.914,197.931,213.239
0.416,33.919,5.104,5.107,262.064,197.729,213.416
0.417,34.200,5.187,5.195,262.194,197.540,213.579
0.418,34.452,5.268,5.282,262.303,197.367,213.725
0.420,34.668,5.342,5.366,262.390,197.214,213.851
0.421,34.846,5.409,5.444,262.455,197.084,213.953
0.422,34.979,5.466,5.516,262.497,196.981,214.027
0.424,35.069,5.511,5.578,262.517,196.905,214.072
0.425,35.123,5.541,5.629,262.520,196.855,214.092
0.426,35.154,5.556,5.668,262.509,196.827,214.093
0.427,35.180,5.559,5.696,262.488,196.818,214.080
0.429,35.215,5.553,5.712,262.463,196.823,214.056
0.430,35.257,5.539,5.719,262.438,196.841,214.028
0.431,35.300,5.520,5.715,262.416,196.867,214.000
0.433,35.342,5.498,5.701,262.402,196.898,213.978
0.434,35.377,5.476,5.679,262.402,196.931,213.965
0.435,35.413,5.457,5.648,262.418,196.963,213.967
0.437,35.464,5.441,5.612,262.455,196.991,213.988
0.438,35.545,5.430,5.574,262.518,197.010,214.035
0.439,35.661,5.424,5.537,262.609,197.019,214.107
0.441,35.810,5.425,5.504,262.724,197.019,214.200
0.442,35.986,5.433,5.481,262.863,197.010,214.309
0.443,36.185,5.449,5.469,263.021,196.992,214.429
0.444,36.402,5.473,5.473,263.196,196.966,214.553
0.446,36.631,5.508,5.496,263.386,196.932,214.678
0.447,36.870,5.550,5.534,263.588,196.891,214.797
0.448,37.112,5.600,5.584,263.800,196.843,214.905
0.450,37.355,5.656,5.644,264.018,196.789,214.996
0.451,37.595,5.716,5.709,264.240,196.729,215.067
0.452,37.832,5.779,5.777,264.464,196.664,215.110
0.454,38.066,5.843,5.844,264.687,196.594,215.122
0.455,38.299,5.908,5.907,264.906,196.520,215.100
0.456,38.535,5.972,5.964,265.123,196.441,215.049
0.458,38.776,6.034,6.017,265.336,196.358,214.973
0.459,39.022,6.094,6.068,265.545,196.271,214.877
0.460,39.272,6.152,6.118,265.751,196.180,214.766
0.461,39.526,6.205,6.170,265.952,196.086,214.644
0.463,39.781,6.254,6.225,266.149,195.987,214.516
0.464,40.034,6.298,6.286,266.342,195.886,214.387
0.465,40.283,6.336,6.354,266.529,195.781,214.261
0.467,40.526,6.370,6.429,266.712,195.673,214.143
0.468,40.760,6.400,6.508,266.889,195.562,214.038
0.469,40.984,6.428,6.590,267.060,195.448,213.949
0.471,41.198,6.458,6.671,267.226,195.331,213.880
0.472,41.402,6.489,6.750,267.385,195.214,213.828
0.473,41.597,6.525,6.824,267.536,195.098,213.791
0.475,41.782,6.567,6.890,267.680,194.983,213.767
0.476,41.956,6.616,6.947,267.814,194.872,213.754
0.477,42.120,6.671,6.995,267.938,194.766,213.751
0.478,42.271,6.730,7.034,268.052,194.666,213.756
0.480,42.410,6.789,7.066,268.154,194.573,213.765
0.481,42.533,6.846,7.091,268.245,194.490,213.779
0.482,42.641,6.898,7.110,268.322,194.417,213.794
0.484,42.731,6.943,7.124,268.386,194.356,213.808
0.485,42.801,6.977,7.135,268.436,194.308,213.820
0.486,42.852,7.000,7.141,268.471,194.273,213.829
0.488,42.885,7.012,7.145,268.495,194.250,213.835
0.489,42.904,7.016,7.147,268.508,194.237,213.839
0.490,42.910,7.013,7.148,268.512,194.232,213.840
0.492,42.914,7.006,7.147,268.510,194.235,213.839
0.493,42.925,6.996,7.145,268.502,194.242,213.837
0.494,42.941,6.985,7.144,268.491,194.254,213.834
0.495,42.960,6.976,7.143,268.478,194.267,213.830
0.497,42.980,6.970,7.142,268.465,194.281,213.825
0.498,42.997,6.966,7.143,268.454,194.294,213.820
0.499,43.011,6.964,7.144,268.447,194.304,213.816
0.501,43.018,6.965,7.146,268.445,194.310,213.812
0.502,43.024,6.967,7.148,268.449,194.312,213.808
0.503,43.033,6.971,7.152,268.458,194.309,213.805
0.505,43.048,6.976,7.156,268.471,194.303,213.803
0.506,43.067,6.982,7.161,268.488,194.294,213.802
0.507,43.088,6.989,7.167,268.506,194.283,213.801
0.508,43.112,6.997,7.173,268.527,194.271,213.801
0.510,43.136,7.005,7.179,268.548,194.258,213.802
0.511,43.161,7.013,7.184,268.569,194.246,213.803
0.512,43.184,7.020,7.189,268.588,194.233,213.805
0.514,43.205,7.026,7.192,268.606,194.223,213.808
0.515,43.223,7.032,7.194,268.622,194.214,213.811
0.516,43.237,7.036,7.194,268.633,194.208,213.815
0.518,43.247,7.039,7.193,268.641,194.205,213.819
0.519,43.254,7.041,7.190,268.647,194.204,213.824
0.520,43.260,7.042,7.187,268.650,194.205,213.829
0.522,43.265,7.042,7.183,268.652,194.206,213.833
0.523,43.269,7.042,7.179,268.654,194.208,213.837
0.524,43.274,7.042,7.175,268.657,194.211,213.839
0.525,43.278,7.041,7.172,268.661,194.212,213.841
0.527,43.284,7.041,7.169,268.667,194.213,213.841
0.528,43.293,7.041,7.167,268.676,194.212,213.839
0.529,43.307,7.041,7.165,268.688,194.208,213.835
0.531,43.326,7.042,7.163,268.705,194.202,213.829
0.532,43.352,7.042,7.161,268.728,194.192,213.820
0.533,43.384,7.042,7.158,268.755,194.180,213.809
