"T","Distance","Radius","FreeRadius","X","Y","Z"
0.000,0.000,1.741,1.741,179.921,207.931,201.606
0.001,0.494,1.855,1.855,179.737,207.489,201.730
0.002,0.985,1.969,1.969,179.554,207.051,201.854
0.004,1.469,2.084,2.084,179.374,206.619,201.977
0.005,1.943,2.200,2.200,179.197,206.196,202.100
0.006,2.404,2.317,2.317,179.025,205.787,202.222
0.007,2.848,2.436,2.436,178.859,205.393,202.342
0.008,3.271,2.557,2.557,178.701,205.018,202.462
0.010,3.672,2.680,2.680,178.551,204.666,202.579
0.011,4.046,2.805,2.805,178.410,204.340,202.695
0.012,4.390,2.932,2.932,178.281,204.042,202.809
0.013,4.702,3.059,3.059,178.164,203.775,202.921
0.015,4.978,3.184,3.184,178.060,203.544,203.030
0.016,5.215,3.306,3.306,177.971,203.352,203.137
0.017,5.414,3.424,3.424,177.896,203.200,203.241
0.018,5.577,3.535,3.535,177.836,203.086,203.341
0.019,5.712,3.638,3.638,177.786,203.005,203.437
0.021,5.824,3.731,3.731,177.745,202.955,203.528
0.022,5.921,3.814,3.814,177.709,202.930,203.615
0.023,6.008,3.887,3.887,177.676,202.926,203.695
0.024,6.090,3.952,3.952,177.643,202.939,203.769
0.025,6.170,4.008,4.008,177.607,202.965,203.836
0.027,6.250,4.058,4.058,177.567,203.000,203.895
0.028,6.330,4.101,4.101,177.518,203.039,203.946
0.029,6.413,4.138,4.138,177.460,203.079,203.988
0.030,6.500,4.171,4.171,177.387,203.114,204.021
0.031,6.594,4.200,4.200,177.299,203.141,204.044
0.033,6.702,4.225,4.225,177.193,203.156,204.056
0.034,6.825,4.247,4.247,177.070,203.159,204.059
0.035,6.962,4.265,4.265,176.934,203.152,204.053
0.036,7.112,4.280,4.280,176.785,203.136,204.041
0.038,7.271,4.291,4.291,176.629,203.114,204.024
0.039,7.436,4.300,4.300,176.468,203.087,204.003
0.040,7.604,4.307,4.307,176.303,203.057,203.981
0.041,7.772,4.310,4.310,176.140,203.025,203.958
0.042,7.937,4.312,4.312,175.979,202.994,203.936
0.044,8.095,4.312,4.312,175.825,202.965,203.917
0.045,8.243,4.311,4.311,175.680,202.940,203.901
0.046,8.378,4.308,4.308,175.547,202.921,203.892
0.047,8.497,4.306,4.306,175.429,202.909,203.890
0.048,8.598,4.304,4.304,175.328,202.907,203.896
0.050,8.683,4.303,4.303,175.244,202.913,203.911
0.051,8.756,4.304,4.304,175.177,202.928,203.933
0.052,8.820,4.305,4.305,175.124,202.950,203.961
0.053,8.879,4.309,4.309,175.084,202.978,203.995
0.054,8.937,4.314,4.314,175.055,203.011,204.033
0.056,8.995,4.320,4.320,175.035,203.047,204.074
0.057,9.054,4.328,4.328,175.023,203.086,204.117
0.058,9.115,4.336,4.336,175.018,203.128,204.160
0.059,9.175,4.346,4.346,175.017,203.169,204.203
0.061,9.234,4.357,4.357,175.019,203.211,204.245
0.062,9.290,4.369,4.369,175.022,203.250,204.285
0.063,9.342,4.381,4.381,175.025,203.288,204.321
0.064,9.388,4.393,4.393,175.027,203.321,204.352
0.065,9.427,4.405,4.405,175.025,203.351,204.378
0.067,9.463,4.416,4.416,175.021,203.377,204.402
0.068,9.494,4.425,4.425,175.013,203.400,204.422
0.069,9.523,4.432,4.432,175.002,203.419,204.441
0.070,9.552,4.436,4.436,174.986,203.435,204.459
0.071,9.583,4.437,4.437,174.966,203.448,204.478
0.073,9.616,4.436,4.436,174.941,203.458,204.499
0.074,9.655,4.431,4.431,174.911,203.466,204.521
0.075,9.699,4.424,4.424,174.876,203.472,204.548
0.076,9.751,4.415,4.415,174.835,203.476,204.579
0.077,9.810,4.404,4.404,174.788,203.478,204.615
0.079,9.879,4.391,4.391,174.735,203.479,204.658
0.080,9.957,4.377,4.377,174.675,203.478,204.709
0.081,10.045,4.362,4.362,174.608,203.476,204.767
0.082,10.141,4.346,4.346,174.537,203.472,204.831
0.084,10.243,4.329,4.329,174.462,203.468,204.899
0.085,10.350,4.313,4.313,174.384,203.462,204.972
0.086,10.459,4.297,4.297,174.304,203.455,205.046
0.087,10.568,4.281,4.281,174.224,203.447,205.121
0.088,10.677,4.267,4.267,174.146,203.438,205.195
0.090,10.782,4.254,4.254,174.069,203.427,205.267
0.091,10.883,4.243,4.243,173.996,203.415,205.335
0.092,10.977,4.234,4.234,173.928,203.402,205.398
0.093,11.063,4.226,4.226,173.865,203.388,205.455
0.094,11.139,4.220,4.220,173.810,203.373,205.505
0.096,11.204,4.213,4.213,173.762,203.356,205.545
0.097,11.257,4.207,4.207,173.723,203.338,205.577
0.098,11.302,4.199,4.199,173.689,203.320,205.601
0.099,11.343,4.190,4.190,173.659,203.303,205.621
0.100,11.383,4.178,4.178,173.628,203.286,205.640
0.102,11.423,4.164,4.164,173.595,203.271,205.658
0.103,11.469,4.148,4.148,173.556,203.258,205.679
0.104,11.524,4.131,4.131,173.509,203.247,205.705
0.105,11.590,4.115,4.115,173.452,203.241,205.738
0.107,11.673,4.103,4.103,173.381,203.238,205.781
0.108,11.776,4.095,4.095,173.294,203.240,205.837
0.109,11.903,4.094,4.094,173.189,203.247,205.906
0.110,12.058,4.102,4.102,173.061,203.260,205.993
0.111,12.243,4.119,4.119,172.910,203.280,206.099
0.113,12.462,4.148,4.148,172.734,203.307,206.224
0.114,12.708,4.187,4.187,172.536,203.339,206.367
0.115,12.978,4.234,4.234,172.320,203.374,206.525
0.116,13.266,4.288,4.288,172.090,203.411,206.695
0.117,13.567,4.349,4.349,171.850,203.449,206.873
0.119,13.876,4.414,4.414,171.603,203.487,207.056
0.120,14.189,4.483,4.483,171.354,203.521,207.243
0.121,14.501,4.554,4.554,171.107,203.552,207.429
0.122,14.806,4.626,4.626,170.864,203.577,207.613
0.123,15.100,4.698,4.698,170.631,203.595,207.790
0.125,15.378,4.770,4.770,170.410,203.604,207.959
0.126,15.635,4.842,4.842,170.206,203.603,208.115
0.127,15.868,4.912,4.912,170.022,203.590,208.257
0.128,16.073,4.981,4.981,169.861,203.565,208.382
0.130,16.254,5.048,5.048,169.722,203.528,208.491
0.131,16.412,5.113,5.113,169.603,203.482,208.585
0.132,16.552,5.175,5.175,169.502,203.429,208.666
0.133,16.675,5.233,5.233,169.418,203.369,208.734
0.134,16.786,5.288,5.288,169.348,203.305,208.791
0.136,16.884,5.338,5.338,169.292,203.239,208.837
0.137,16.974,5.385,5.385,169.246,203.172,208.875
0.138,17.055,5.426,5.426,169.210,203.106,208.906
0.139,17.128,5.463,5.463,169.182,203.043,208.929
0.140,17.194,5.494,5.494,169.159,202.984,208.948
0.142,17.251,5.519,5.519,169.141,202.931,208.963
0.143,17.300,5.538,5.538,169.125,202.887,208.974
0.144,17.340,5.553,5.553,169.109,202.852,208.984
0.145,17.371,5.563,5.563,169.094,202.825,208.993
0.146,17.396,5.570,5.570,169.079,202.807,209.000
0.148,17.416,5.575,5.575,169.065,202.795,209.007
0.149,17.434,5.579,5.579,169.049,202.788,209.012
0.150,17.450,5.582,5.582,169.034,202.787,209.018
0.151,17.467,5.585,5.585,169.018,202.789,209.023
0.153,17.486,5.590,5.590,169.001,202.794,209.029
0.154,17.506,5.595,5.595,168.983,202.801,209.035
0.155,17.527,5.603,5.603,168.965,202.808,209.041
0.156,17.549,5.611,5.611,168.945,202.816,209.048
0.157,17.573,5.621,5.621,168.923,202.821,209.057
0.159,17.598,5.631,5.631,168.900,202.825,209.066
0.160,17.626,5.643,5.643,168.875,202.826,209.078
0.161,17.655,5.656,5.656,168.849,202.823,209.090
0.162,17.685,5.669,5.669,168.822,202.819,209.104
0.163,17.715,5.683,5.683,168.796,202.812,209.117
0.165,17.746,5.696,5.696,168.770,202.805,209.132
0.166,17.775,5.708,5.708,168.746,202.797,209.145
0.167,17.802,5.718,5.719,168.723,202.790,209.158
0.168,17.826,5.726,5.726,168.703,202.783,209.170
0.169,17.846,5.730,5.730,168.687,202.777,209.181
0.171,17.862,5.729,5.729,168.675,202.774,209.190
0.172,17.872,5.724,5.724,168.667,202.772,209.196
0.173,17.877,5.713,5.713,168.664,202.774,209.200
0.174,17.884,5.698,5.698,168.668,202.780,209.201
0.176,17.898,5.682,5.681,168.678,202.790,209.199
0.177,17.919,5.664,5.663,168.693,202.803,209.194
0.178,17.944,5.648,5.647,168.711,202.819,209.187
0.179,17.971,5.634,5.633,168.731,202.835,209.179
0.180,17.997,5.625,5.624,168.749,202.851,209.170
0.182,18.020,5.622,5.622,168.765,202.866,209.162
0.183,18.037,5.627,5.627,168.776,202.878,209.156
0.184,18.046,5.638,5.640,168.780,202.885,209.152
0.185,18.051,5.655,5.658,168.776,202.887,209.152
0.186,18.068,5.677,5.681,168.760,202.882,209.155
0.188,18.100,5.701,5.706,168.732,202.870,209.163
0.189,18.151,5.728,5.733,168.689,202.848,209.178
0.190,18.222,5.756,5.760,168.628,202.816,209.198
0.191,18.317,5.783,5.785,168.549,202.772,209.227
0.192,18.433,5.808,5.807,168.453,202.717,209.262
0.194,18.568,5.831,5.825,168.342,202.652,209.303
0.195,18.718,5.851,5.841,168.220,202.579,209.349
0.196,18.879,5.868,5.854,168.088,202.500,209.398
0.197,19.047,5.882,5.865,167.951,202.416,209.450
0.199,19.220,5.892,5.874,167.812,202.329,209.502
0.200,19.393,5.899,5.883,167.672,202.240,209.554
0.201,19.564,5.901,5.892,167.536,202.151,209.605
0.202,19.728,5.899,5.900,167.407,202.064,209.654
0.203,19.882,5.892,5.910,167.286,201.979,209.698
0.205,20.022,5.882,5.920,167.178,201.899,209.738
0.206,20.146,5.871,5.931,167.085,201.825,209.772
0.207,20.249,5.859,5.944,167.010,201.759,209.798
0.208,20.333,5.848,5.957,166.952,201.701,209.817
0.209,20.399,5.839,5.973,166.911,201.652,209.831
0.211,20.449,5.833,5.989,166.883,201.611,209.841
0.212,20.486,5.833,6.008,166.865,201.579,209.848
0.213,20.512,5.838,6.028,166.856,201.556,209.854
0.214,20.529,5.848,6.047,166.852,201.541,209.861
0.215,20.539,5.859,6.063,166.851,201.535,209.869
0.217,20.551,5.870,6.072,166.852,201.539,209.881
0.218,20.572,5.877,6.071,166.850,201.551,209.898
0.219,20.604,5.879,6.056,166.844,201.572,209.921
0.220,20.649,5.872,6.026,166.832,201.603,209.952
0.222,20.710,5.854,5.976,166.810,201.643,209.992
0.223,20.788,5.822,5.903,166.777,201.692,210.044
0.224,20.884,5.777,5.810,166.731,201.749,210.106
0.225,20.996,5.720,5.705,166.672,201.811,210.177
0.226,21.121,5.654,5.596,166.599,201.875,210.256
0.228,21.258,5.581,5.491,166.514,201.940,210.341
0.229,21.404,5.503,5.398,166.415,202.001,210.430
0.230,21.559,5.423,5.326,166.303,202.056,210.521
0.231,21.721,5.344,5.282,166.178,202.102,210.614
0.232,21.890,5.267,5.276,166.040,202.136,210.705
0.234,22.067,5.195,5.311,165.888,202.156,210.794
0.235,22.252,5.127,5.377,165.723,202.159,210.879
0.236,22.448,5.064,5.464,165.545,202.141,210.957
0.237,22.656,5.006,5.560,165.354,202.100,211.028
0.238,22.880,4.952,5.653,165.149,202.034,211.090
0.240,23.121,4.902,5.732,164.932,201.942,211.141
0.241,23.377,4.857,5.785,164.706,201.827,211.183
0.242,23.644,4.817,5.801,164.476,201.696,211.214
0.243,23.918,4.781,5.770,164.246,201.550,211.236
0.245,24.194,4.748,5.695,164.017,201.396,211.248
0.246,24.466,4.718,5.585,163.796,201.238,211.252
0.247,24.731,4.691,5.451,163.584,201.079,211.246
0.248,24.982,4.665,5.303,163.387,200.924,211.232
0.249,25.215,4.640,5.149,163.208,200.777,211.210
0.251,25.424,4.615,5.000,163.050,200.643,211.180
0.252,25.605,4.588,4.866,162.917,200.526,211.141
0.253,25.754,4.560,4.756,162.813,200.430,211.096
0.254,25.867,4.531,4.675,162.742,200.360,211.043
0.255,25.949,4.501,4.618,162.705,200.317,210.984
0.257,26.014,4.471,4.581,162.696,200.298,210.922
0.258,26.076,4.443,4.562,162.709,200.298,210.861
0.259,26.142,4.418,4.554,162.738,200.313,210.804
0.260,26.209,4.396,4.556,162.778,200.337,210.755
0.262,26.275,4.379,4.562,162.822,200.368,210.718
0.263,26.332,4.367,4.569,162.864,200.400,210.696
0.264,26.377,4.362,4.573,162.898,200.428,210.692
0.265,26.411,4.362,4.573,162.919,200.450,210.710
0.266,26.456,4.364,4.570,162.919,200.459,210.754
0.268,26.534,4.367,4.563,162.894,200.451,210.828
0.269,26.658,4.368,4.551,162.837,200.423,210.934
0.270,26.837,4.366,4.535,162.742,200.369,211.076
0.271,27.077,4.358,4.514,162.607,200.287,211.256
0.272,27.371,4.343,4.488,162.434,200.181,211.469
0.274,27.709,4.319,4.457,162.232,200.054,211.708
0.275,28.082,4.286,4.421,162.005,199.911,211.968
0.276,28.481,4.248,4.382,161.761,199.756,212.243
0.277,28.896,4.207,4.342,161.505,199.593,212.525
0.278,29.317,4.166,4.303,161.244,199.426,212.811
0.280,29.735,4.127,4.265,160.984,199.260,213.092
0.281,30.140,4.094,4.231,160.730,199.099,213.364
0.282,30.523,4.070,4.202,160.489,198.947,213.620
0.283,30.874,4.056,4.180,160.268,198.808,213.855
0.285,31.183,4.053,4.166,160.072,198.686,214.061
0.286,31.442,4.061,4.158,159.908,198.586,214.233
0.287,31.642,4.076,4.155,159.780,198.511,214.367
0.288,31.788,4.097,4.158,159.685,198.459,214.465
0.289,31.887,4.122,4.164,159.621,198.426,214.533
0.291,31.946,4.148,4.174,159.582,198.410,214.574
0.292,31.972,4.175,4.186,159.566,198.407,214.594
0.293,31.980,4.199,4.199,159.567,198.414,214.597
0.294,32.003,4.220,4.212,159.582,198.429,214.588
0.295,32.039,4.237,4.226,159.607,198.448,214.571
0.297,32.081,4.252,4.241,159.639,198.468,214.551
0.298,32.123,4.264,4.255,159.672,198.486,214.532
0.299,32.159,4.276,4.270,159.704,198.498,214.520
0.300,32.185,4.286,4.286,159.729,198.503,214.518
0.301,32.208,4.297,4.301,159.745,198.496,214.532
0.303,32.247,4.309,4.317,159.747,198.475,214.566
0.304,32.310,4.321,4.332,159.737,198.441,214.617
0.305,32.393,4.336,4.348,159.716,198.395,214.684
0.306,32.495,4.352,4.365,159.685,198.341,214.764
0.308,32.612,4.369,4.381,159.646,198.278,214.855
0.309,32.739,4.387,4.399,159.600,198.211,214.953
0.310,32.874,4.406,4.416,159.550,198.139,215.055
0.311,33.013,4.427,4.435,159.497,198.066,215.161
0.312,33.152,4.448,4.454,159.442,197.993,215.266
0.314,33.288,4.470,4.474,159.387,197.922,215.367
0.315,33.416,4.492,4.495,159.334,197.855,215.464
0.316,33.535,4.514,4.515,159.284,197.793,215.551
0.317,33.638,4.535,4.536,159.239,197.740,215.628
0.318,33.725,4.554,4.554,159.201,197.696,215.692
0.320,33.794,4.571,4.571,159.169,197.661,215.742
0.321,33.847,4.585,4.585,159.143,197.634,215.780
0.322,33.885,4.596,4.595,159.123,197.616,215.807
0.323,33.911,4.602,4.602,159.108,197.603,215.824
0.324,33.925,4.603,4.604,159.099,197.597,215.832
0.326,33.930,4.601,4.602,159.094,197.596,215.833
0.327,33.937,4.596,4.597,159.093,197.599,215.827
0.328,33.950,4.588,4.590,159.096,197.605,215.816
0.329,33.968,4.580,4.582,159.102,197.614,215.801
0.331,33.991,4.572,4.574,159.111,197.624,215.783
0.332,34.016,4.565,4.566,159.123,197.635,215.764
0.333,34.043,4.560,4.560,159.137,197.645,215.743
0.334,34.070,4.558,4.556,159.152,197.655,215.723
0.335,34.095,4.558,4.555,159.169,197.662,215.705
0.337,34.116,4.561,4.556,159.183,197.668,215.691
0.338,34.131,4.565,4.559,159.195,197.670,215.682
0.339,34.138,4.570,4.562,159.202,197.669,215.680
0.340,34.146,4.574,4.567,159.202,197.665,215.686
0.341,34.167,4.578,4.571,159.193,197.655,215.703
0.343,34.204,4.579,4.576,159.175,197.641,215.731
0.344,34.259,4.578,4.580,159.144,197.621,215.773
0.345,34.336,4.574,4.584,159.100,197.596,215.830
0.346,34.436,4.571,4.589,159.040,197.563,215.904
0.347,34.563,4.570,4.598,158.963,197.524,215.996
0.349,34.718,4.575,4.613,158.866,197.476,216.108
0.350,34.904,4.587,4.636,158.749,197.421,216.241
0.351,35.120,4.609,4.668,158.612,197.357,216.395
0.352,35.359,4.643,4.711,158.459,197.288,216.565
0.354,35.617,4.693,4.768,158.293,197.214,216.749
0.355,35.889,4.759,4.839,158.117,197.136,216.941
0.356,36.169,4.839,4.922,157.936,197.057,217.139
0.357,36.451,4.928,5.012,157.752,196.977,217.338
0.358,36.732,5.023,5.107,157.570,196.899,217.536
0.360,37.004,5.119,5.201,157.392,196.822,217.728
0.361,37.264,5.213,5.291,157.222,196.750,217.910
0.362,37.505,5.300,5.373,157.064,196.684,218.080
0.363,37.723,5.376,5.443,156.920,196.624,218.232
0.364,37.912,5.438,5.498,156.795,196.572,218.364
0.366,38.067,5.485,5.537,156.692,196.531,218.472
0.367,38.186,5.518,5.563,156.612,196.499,218.555
0.368,38.274,5.540,5.579,156.553,196.477,218.616
0.369,38.333,5.552,5.586,156.512,196.464,218.657
0.370,38.367,5.557,5.588,156.489,196.458,218.680
0.372,38.380,5.555,5.586,156.479,196.459,218.689
0.373,38.388,5.548,5.584,156.482,196.467,218.686
0.374,38.411,5.540,5.584,156.495,196.480,218.673
0.375,38.444,5.530,5.587,156.516,196.498,218.654
0.377,38.486,5.519,5.592,156.543,196.519,218.631
0.378,38.532,5.507,5.600,156.574,196.543,218.606
0.379,38.580,5.496,5.609,156.607,196.569,218.583
0.380,38.627,5.484,5.619,156.639,196.597,218.563
0.381,38.670,5.473,5.629,156.669,196.625,218.550
0.383,38.708,5.462,5.639,156.695,196.653,218.545
0.384,38.743,5.452,5.648,156.716,196.680,218.547
0.385,38.775,5.444,5.654,156.731,196.707,218.557
0.386,38.807,5.437,5.660,156.740,196.733,218.573
0.387,38.840,5.432,5.664,156.743,196.757,218.595
0.389,38.876,5.430,5.668,156.737,196.779,218.623
0.390,38.918,5.430,5.672,156.724,196.800,218.657
0.391,38.966,5.433,5.676,156.701,196.818,218.695
0.392,39.021,5.439,5.682,156.669,196.833,218.738
0.393,39.086,5.449,5.688,156.626,196.846,218.784
0.395,39.160,5.463,5.696,156.573,196.855,218.834
0.396,39.244,5.481,5.706,156.507,196.860,218.887
0.397,39.339,5.503,5.718,156.430,196.862,218.943
0.398,39.446,5.528,5.733,156.340,196.860,219.001
0.400,39.563,5.556,5.750,156.239,196.855,219.060
0.401,39.688,5.587,5.769,156.130,196.848,219.120
0.402,39.819,5.620,5.791,156.015,196.839,219.181
0.403,39.954,5.656,5.817,155.895,196.829,219.242
0.404,40.091,5.693,5.845,155.772,196.820,219.302
0.406,40.228,5.732,5.876,155.649,196.812,219.361
0.407,40.363,5.773,5.909,155.527,196.806,219.420
0.408,40.494,5.813,5.943,155.408,196.803,219.476
0.409,40.620,5.853,5.977,155.295,196.803,219.529
0.410,40.737,5.892,6.010,155.189,196.808,219.580
0.412,40.846,5.930,6.041,155.092,196.818,219.627
0.413,40.943,5.965,6.069,155.007,196.834,219.671
0.414,41.029,5.998,6.093,154.934,196.857,219.710
0.415,41.106,6.027,6.112,154.872,196.886,219.746
0.416,41.176,6.053,6.127,154.820,196.920,219.780
0.418,41.243,6.076,6.139,154.776,196.957,219.813
0.419,41.307,6.094,6.149,154.739,196.998,219.846
0.420,41.370,6.109,6.158,154.707,197.041,219.879
0.421,41.434,6.121,6.167,154.678,197.085,219.915
0.423,41.499,6.128,6.176,154.651,197.130,219.953
0.424,41.566,6.132,6.188,154.624,197.174,219.996
0.425,41.635,6.133,6.204,154.595,197.216,220.043
0.426,41.709,6.130,6.222,154.564,197.256,220.097
0.427,41.788,6.125,6.242,154.528,197.293,220.157
0.429,41.875,6.120,6.264,154.487,197.325,220.226
0.430,41.970,6.115,6.286,154.438,197.352,220.303
0.431,42.075,6.111,6.308,154.382,197.375,220.389
0.432,42.187,6.111,6.330,154.320,197.393,220.481
0.433,42.307,6.114,6.349,154.254,197.407,220.579
0.435,42.432,6.123,6.366,154.183,197.418,220.682
0.436,42.561,6.138,6.380,154.110,197.427,220.788
0.437,42.693,6.157,6.392,154.034,197.432,220.896
0.438,42.827,6.179,6.402,153.957,197.437,221.006
0.439,42.962,6.204,6.412,153.880,197.439,221.116
0.441,43.095,6.229,6.421,153.803,197.441,221.224
0.442,43.225,6.254,6.432,153.728,197.443,221.331
0.443,43.351,6.278,6.444,153.656,197.444,221.434
0.444,43.471,6.298,6.458,153.587,197.446,221.532
0.446,43.585,6.315,6.476,153.522,197.449,221.626
0.447,43.692,6.328,6.496,153.461,197.454,221.713
0.448,43.792,6.339,6.518,153.403,197.459,221.796
0.449,43.887,6.348,6.540,153.348,197.465,221.873
0.450,43.978,6.356,6.563,153.295,197.471,221.946
0.452,44.063,6.364,6.584,153.244,197.478,222.014
0.453,44.145,6.374,6.603,153.193,197.486,222.077
0.454,44.224,6.386,6.620,153.143,197.494,222.137
0.455,44.300,6.400,6.633,153.092,197.503,222.193
0.456,44.374,6.418,6.642,153.040,197.512,222.245
0.458,44.447,6.438,6.648,152.987,197.521,222.295
0.459,44.520,6.458,6.652,152.931,197.530,222.341
0.460,44.593,6.479,6.654,152.873,197.538,222.384
0.461,44.667,6.499,6.656,152.811,197.547,222.424
0.462,44.743,6.518,6.657,152.746,197.556,222.463
0.464,44.819,6.534,6.659,152.679,197.564,222.498
0.465,44.895,6.547,6.662,152.612,197.572,222.532
0.466,44.970,6.556,6.667,152.543,197.580,222.563
0.467,45.044,6.561,6.672,152.476,197.587,222.592
0.469,45.116,6.564,6.679,152.410,197.595,222.618
0.470,45.185,6.564,6.686,152.345,197.602,222.642
0.471,45.250,6.563,6.693,152.285,197.608,222.665
0.472,45.311,6.561,6.700,152.228,197.615,222.685
0.473,45.366,6.558,6.705,152.176,197.621,222.703
0.475,45.416,6.556,6.709,152.129,197.626,222.719
0.476,45.458,6.555,6.712,152.089,197.632,222.733
0.477,45.493,6.555,6.712,152.057,197.637,222.745
0.478,45.521,6.555,6.711,152.031,197.641,222.755
0.479,45.543,6.555,6.710,152.012,197.645,222.764
0.481,45.559,6.556,6.708,151.998,197.649,222.771
0.482,45.571,6.557,6.705,151.988,197.653,222.778
0.483,45.580,6.558,6.703,151.982,197.657,222.783
0.484,45.587,6.559,6.701,151.978,197.661,222.787
0.485,45.592,6.560,6.700,151.977,197.664,222.791
0.487,45.598,6.560,6.700,151.975,197.668,222.794
0.488,45.603,6.560,6.700,151.974,197.672,222.797
0.489,45.608,6.559,6.700,151.972,197.676,222.801
0.490,45.615,6.558,6.700,151.967,197.680,222.804
0.492,45.624,6.556,6.700,151.960,197.684,222.807
0.493,45.637,6.554,6.699,151.949,197.689,222.812
