"T","Distance","Radius","FreeRadius","X","Y","Z"
0.000,0.000,1.687,1.687,75.502,-51.127,-1.917
0.001,0.172,1.755,1.755,75.522,-50.971,-1.984
0.002,0.341,1.823,1.823,75.541,-50.815,-2.050
0.004,0.508,1.889,1.889,75.561,-50.663,-2.115
0.005,0.668,1.954,1.954,75.580,-50.516,-2.176
0.006,0.822,2.017,2.017,75.598,-50.375,-2.234
0.007,0.967,2.077,2.077,75.616,-50.241,-2.287
0.008,1.101,2.134,2.134,75.634,-50.117,-2.335
0.010,1.222,2.188,2.188,75.650,-50.004,-2.376
0.011,1.330,2.237,2.237,75.666,-49.904,-2.410
0.012,1.421,2.282,2.282,75.681,-49.817,-2.436
0.013,1.496,2.322,2.322,75.695,-49.746,-2.452
0.015,1.552,2.356,2.356,75.708,-49.692,-2.459
0.016,1.590,2.385,2.385,75.719,-49.655,-2.455
0.017,1.617,2.408,2.408,75.728,-49.632,-2.444
0.018,1.638,2.425,2.425,75.734,-49.620,-2.429
0.019,1.656,2.435,2.435,75.735,-49.614,-2.412
0.021,1.672,2.439,2.439,75.732,-49.612,-2.396
0.022,1.688,2.436,2.436,75.722,-49.610,-2.383
0.023,1.706,2.430,2.430,75.706,-49.603,-2.378
0.024,1.734,2.423,2.423,75.682,-49.589,-2.382
0.025,1.778,2.419,2.419,75.650,-49.565,-2.399
0.027,1.844,2.419,2.419,75.608,-49.525,-2.431
0.028,1.936,2.426,2.426,75.555,-49.468,-2.481
0.029,2.060,2.444,2.444,75.492,-49.388,-2.551
0.030,2.216,2.475,2.475,75.418,-49.288,-2.643
0.032,2.397,2.521,2.521,75.335,-49.170,-2.754
0.033,2.598,2.578,2.578,75.247,-49.040,-2.881
0.034,2.814,2.641,2.641,75.156,-48.904,-3.021
0.035,3.038,2.707,2.707,75.065,-48.765,-3.171
0.036,3.265,2.770,2.770,74.976,-48.629,-3.330
0.038,3.490,2.827,2.827,74.892,-48.500,-3.493
0.039,3.706,2.872,2.872,74.815,-48.384,-3.659
0.040,3.911,2.900,2.900,74.748,-48.285,-3.825
0.041,4.099,2.909,2.909,74.693,-48.208,-3.988
0.042,4.269,2.898,2.898,74.654,-48.159,-4.145
0.044,4.421,2.872,2.872,74.632,-48.140,-4.294
0.045,4.562,2.835,2.835,74.628,-48.153,-4.435
0.046,4.700,2.791,2.791,74.640,-48.192,-4.568
0.047,4.842,2.744,2.744,74.665,-48.252,-4.693
0.048,4.990,2.699,2.699,74.703,-48.331,-4.813
0.050,5.145,2.658,2.658,74.752,-48.422,-4.928
0.051,5.305,2.627,2.627,74.810,-48.522,-5.038
0.052,5.468,2.608,2.608,74.876,-48.626,-5.145
0.053,5.631,2.598,2.598,74.947,-48.730,-5.249
0.055,5.793,2.596,2.596,75.022,-48.830,-5.352
0.056,5.950,2.601,2.601,75.099,-48.920,-5.454
0.057,6.100,2.610,2.610,75.177,-48.997,-5.557
0.058,6.242,2.623,2.623,75.255,-49.056,-5.660
0.059,6.378,2.636,2.636,75.331,-49.099,-5.765
0.061,6.511,2.649,2.649,75.406,-49.128,-5.870
0.062,6.642,2.659,2.659,75.481,-49.145,-5.976
0.063,6.772,2.668,2.668,75.555,-49.151,-6.083
0.064,6.903,2.675,2.675,75.629,-49.151,-6.191
0.065,7.035,2.681,2.681,75.703,-49.145,-6.300
0.067,7.167,2.685,2.685,75.778,-49.136,-6.409
0.068,7.300,2.690,2.690,75.853,-49.126,-6.518
0.069,7.434,2.694,2.694,75.929,-49.118,-6.628
0.070,7.568,2.699,2.699,76.006,-49.114,-6.738
0.072,7.703,2.704,2.704,76.084,-49.116,-6.847
0.073,7.839,2.711,2.711,76.164,-49.126,-6.957
0.074,7.975,2.719,2.719,76.245,-49.143,-7.066
0.075,8.111,2.729,2.729,76.326,-49.166,-7.172
0.076,8.246,2.743,2.743,76.407,-49.195,-7.276
0.078,8.379,2.760,2.760,76.488,-49.228,-7.376
0.079,8.508,2.781,2.781,76.567,-49.265,-7.471
0.080,8.633,2.807,2.807,76.645,-49.305,-7.560
0.081,8.752,2.837,2.837,76.721,-49.346,-7.643
0.082,8.865,2.873,2.873,76.794,-49.388,-7.718
0.084,8.971,2.912,2.912,76.865,-49.431,-7.784
0.085,9.067,2.954,2.954,76.932,-49.472,-7.840
0.086,9.155,2.996,2.996,76.994,-49.511,-7.887
0.087,9.232,3.037,3.037,77.053,-49.548,-7.922
0.088,9.301,3.077,3.077,77.106,-49.582,-7.949
0.090,9.363,3.112,3.112,77.155,-49.614,-7.969
0.091,9.418,3.142,3.142,77.198,-49.645,-7.985
0.092,9.468,3.166,3.166,77.237,-49.673,-7.998
0.093,9.512,3.183,3.183,77.270,-49.700,-8.009
0.095,9.551,3.194,3.194,77.297,-49.725,-8.022
0.096,9.587,3.199,3.199,77.318,-49.749,-8.039
0.097,9.621,3.198,3.198,77.333,-49.771,-8.060
0.098,9.658,3.192,3.192,77.342,-49.793,-8.088
0.099,9.701,3.180,3.180,77.344,-49.814,-8.125
0.101,9.753,3.163,3.163,77.340,-49.834,-8.173
0.102,9.817,3.141,3.141,77.329,-49.853,-8.233
0.103,9.891,3.115,3.115,77.312,-49.872,-8.303
0.104,9.976,3.086,3.086,77.288,-49.890,-8.383
0.105,10.071,3.056,3.056,77.259,-49.907,-8.471
0.107,10.175,3.024,3.024,77.224,-49.922,-8.568
0.108,10.287,2.994,2.994,77.184,-49.937,-8.671
0.109,10.406,2.965,2.965,77.139,-49.950,-8.781
0.110,10.531,2.938,2.938,77.089,-49.961,-8.895
0.112,10.662,2.916,2.916,77.035,-49.971,-9.014
0.113,10.798,2.898,2.898,76.976,-49.979,-9.136
0.114,10.937,2.885,2.885,76.914,-49.986,-9.261
0.115,11.079,2.875,2.875,76.848,-49.990,-9.387
0.116,11.224,2.869,2.869,76.780,-49.993,-9.514
0.118,11.370,2.866,2.866,76.708,-49.994,-9.641
0.119,11.516,2.865,2.865,76.636,-49.995,-9.768
0.120,11.662,2.866,2.866,76.562,-49.995,-9.894
0.121,11.807,2.868,2.868,76.487,-49.995,-10.019
0.122,11.950,2.872,2.872,76.413,-49.995,-10.141
0.124,12.091,2.877,2.877,76.340,-49.997,-10.261
0.125,12.228,2.884,2.884,76.269,-50.000,-10.378
0.126,12.361,2.892,2.892,76.200,-50.004,-10.492
0.127,12.489,2.902,2.902,76.134,-50.011,-10.601
0.128,12.611,2.913,2.913,76.071,-50.021,-10.705
0.130,12.726,2.927,2.927,76.013,-50.033,-10.804
0.131,12.835,2.942,2.942,75.959,-50.048,-10.898
0.132,12.939,2.960,2.960,75.908,-50.065,-10.986
0.133,13.036,2.980,2.980,75.861,-50.083,-11.069
0.135,13.128,3.000,3.000,75.816,-50.103,-11.147
0.136,13.214,3.022,3.022,75.775,-50.123,-11.220
0.137,13.294,3.043,3.043,75.736,-50.143,-11.287
0.138,13.369,3.065,3.065,75.699,-50.162,-11.349
0.139,13.439,3.085,3.085,75.664,-50.180,-11.407
0.141,13.503,3.103,3.103,75.630,-50.196,-11.459
0.142,13.562,3.119,3.119,75.597,-50.210,-11.507
0.143,13.617,3.133,3.133,75.565,-50.221,-11.549
0.144,13.666,3.144,3.144,75.534,-50.229,-11.587
0.145,13.712,3.154,3.154,75.504,-50.234,-11.621
0.147,13.754,3.161,3.161,75.474,-50.236,-11.650
0.148,13.792,3.167,3.167,75.446,-50.237,-11.676
0.149,13.828,3.172,3.172,75.418,-50.236,-11.698
0.150,13.860,3.176,3.176,75.392,-50.234,-11.718
0.152,13.890,3.179,3.179,75.368,-50.231,-11.735
0.153,13.918,3.181,3.181,75.345,-50.227,-11.750
0.154,13.943,3.182,3.182,75.324,-50.224,-11.763
0.155,13.965,3.184,3.184,75.305,-50.222,-11.774
0.156,13.985,3.185,3.185,75.288,-50.220,-11.785
0.158,14.003,3.187,3.187,75.273,-50.219,-11.795
0.159,14.020,3.188,3.188,75.260,-50.221,-11.805
0.160,14.037,3.190,3.190,75.247,-50.224,-11.816
0.161,14.058,3.193,3.193,75.233,-50.231,-11.830
0.162,14.084,3.197,3.197,75.217,-50.241,-11.848
0.164,14.118,3.201,3.201,75.196,-50.256,-11.870
0.165,14.162,3.207,3.207,75.169,-50.275,-11.899
0.166,14.218,3.215,3.215,75.134,-50.300,-11.936
0.167,14.288,3.224,3.224,75.091,-50.331,-11.982
0.168,14.374,3.236,3.236,75.037,-50.368,-12.038
0.170,14.479,3.251,3.251,74.971,-50.413,-12.105
0.171,14.603,3.269,3.269,74.892,-50.465,-12.185
0.172,14.749,3.290,3.290,74.797,-50.526,-12.279
0.173,14.917,3.315,3.315,74.688,-50.594,-12.386
0.175,15.104,3.346,3.346,74.564,-50.669,-12.504
0.176,15.307,3.383,3.383,74.426,-50.749,-12.630
0.177,15.525,3.429,3.429,74.276,-50.833,-12.763
0.178,15.753,3.483,3.483,74.115,-50.919,-12.901
0.179,15.991,3.549,3.549,73.943,-51.006,-13.040
0.181,16.235,3.627,3.627,73.761,-51.092,-13.179
0.182,16.484,3.719,3.719,73.571,-51.176,-13.315
0.183,16.735,3.824,3.824,73.373,-51.257,-13.446
0.184,16.986,3.941,3.941,73.168,-51.334,-13.570
0.185,17.237,4.066,4.066,72.957,-51.404,-13.684
0.187,17.484,4.195,4.195,72.741,-51.467,-13.787
0.188,17.727,4.324,4.324,72.522,-51.522,-13.879
0.189,17.966,4.451,4.451,72.303,-51.570,-13.959
0.190,18.197,4.572,4.572,72.086,-51.612,-14.029
0.192,18.421,4.682,4.682,71.874,-51.649,-14.090
0.193,18.635,4.779,4.779,71.669,-51.680,-14.142
0.194,18.836,4.862,4.862,71.474,-51.706,-14.186
0.195,19.024,4.932,4.932,71.292,-51.728,-14.223
0.196,19.195,4.991,4.991,71.124,-51.747,-14.253
0.198,19.349,5.038,5.038,70.973,-51.763,-14.277
0.199,19.481,5.075,5.075,70.843,-51.776,-14.297
0.200,19.591,5.104,5.104,70.735,-51.787,-14.312
0.201,19.676,5.125,5.125,70.651,-51.796,-14.323
0.202,19.738,5.139,5.139,70.589,-51.804,-14.331
0.204,19.781,5.147,5.147,70.548,-51.811,-14.336
0.205,19.805,5.151,5.151,70.524,-51.817,-14.339
0.206,19.815,5.152,5.152,70.516,-51.821,-14.340
0.207,19.821,5.151,5.151,70.520,-51.825,-14.340
0.208,19.836,5.150,5.150,70.535,-51.828,-14.339
0.210,19.858,5.149,5.149,70.557,-51.830,-14.337
0.211,19.886,5.151,5.151,70.585,-51.832,-14.336
0.212,19.917,5.156,5.156,70.616,-51.833,-14.335
0.213,19.949,5.166,5.166,70.647,-51.834,-14.335
0.215,19.979,5.179,5.179,70.677,-51.835,-14.336
0.216,20.005,5.194,5.194,70.703,-51.835,-14.339
0.217,20.027,5.209,5.209,70.725,-51.836,-14.344
0.218,20.044,5.223,5.223,70.742,-51.836,-14.349
0.219,20.057,5.235,5.235,70.753,-51.836,-14.354
0.221,20.066,5.243,5.243,70.759,-51.835,-14.360
0.222,20.071,5.246,5.246,70.759,-51.835,-14.366
0.223,20.080,5.242,5.242,70.753,-51.834,-14.371
0.224,20.094,5.232,5.232,70.739,-51.834,-14.374
0.225,20.115,5.216,5.216,70.718,-51.833,-14.377
0.227,20.143,5.197,5.197,70.690,-51.831,-14.377
0.228,20.180,5.174,5.174,70.653,-51.830,-14.375
0.229,20.226,5.151,5.151,70.607,-51.828,-14.371
0.230,20.281,5.126,5.126,70.553,-51.827,-14.364
0.232,20.343,5.103,5.103,70.492,-51.825,-14.354
0.233,20.411,5.081,5.081,70.425,-51.823,-14.343
0.234,20.483,5.062,5.062,70.353,-51.821,-14.331
0.235,20.559,5.046,5.046,70.279,-51.819,-14.317
0.236,20.637,5.031,5.031,70.202,-51.817,-14.303
0.238,20.715,5.019,5.019,70.125,-51.816,-14.289
0.239,20.793,5.009,5.009,70.049,-51.815,-14.275
0.240,20.868,5.001,5.001,69.975,-51.815,-14.261
0.241,20.940,4.994,4.994,69.904,-51.815,-14.249
0.242,21.006,4.988,4.988,69.838,-51.815,-14.239
0.244,21.067,4.983,4.983,69.778,-51.817,-14.231
0.245,21.121,4.978,4.978,69.724,-51.819,-14.225
0.246,21.170,4.974,4.974,69.676,-51.822,-14.222
0.247,21.214,4.969,4.969,69.632,-51.826,-14.222
0.248,21.255,4.964,4.964,69.592,-51.832,-14.225
0.250,21.293,4.957,4.957,69.555,-51.840,-14.233
0.251,21.330,4.949,4.949,69.521,-51.849,-14.244
0.252,21.367,4.939,4.939,69.489,-51.860,-14.260
0.253,21.407,4.927,4.927,69.459,-51.873,-14.280
0.255,21.449,4.913,4.913,69.429,-51.889,-14.306
0.256,21.496,4.897,4.897,69.399,-51.907,-14.337
0.257,21.549,4.882,4.882,69.368,-51.928,-14.374
0.258,21.608,4.867,4.867,69.336,-51.952,-14.417
0.259,21.672,4.853,4.853,69.301,-51.979,-14.465
0.261,21.741,4.842,4.842,69.264,-52.007,-14.516
0.262,21.814,4.833,4.833,69.223,-52.036,-14.568
0.263,21.889,4.829,4.829,69.177,-52.066,-14.620
0.264,21.966,4.828,4.828,69.126,-52.096,-14.670
0.265,22.045,4.830,4.830,69.069,-52.125,-14.716
0.267,22.126,4.833,4.833,69.005,-52.153,-14.756
0.268,22.209,4.835,4.835,68.933,-52.179,-14.790
0.269,22.297,4.835,4.835,68.853,-52.202,-14.815
0.270,22.390,4.832,4.832,68.763,-52.222,-14.829
0.272,22.491,4.823,4.823,68.663,-52.239,-14.830
0.273,22.603,4.808,4.808,68.553,-52.252,-14.819
0.274,22.726,4.785,4.785,68.432,-52.265,-14.798
0.275,22.859,4.754,4.754,68.303,-52.282,-14.770
0.276,23.003,4.716,4.716,68.165,-52.308,-14.737
0.278,23.156,4.671,4.671,68.021,-52.346,-14.705
0.279,23.320,4.620,4.620,67.869,-52.401,-14.675
0.280,23.495,4.562,4.562,67.713,-52.477,-14.651
0.281,23.686,4.499,4.499,67.552,-52.578,-14.636
0.282,23.896,4.431,4.431,67.387,-52.709,-14.634
0.284,24.131,4.359,4.359,67.219,-52.872,-14.648
0.285,24.396,4.283,4.283,67.049,-53.073,-14.681
0.286,24.698,4.208,4.208,66.878,-53.316,-14.736
0.287,25.039,4.134,4.134,66.707,-53.600,-14.814
0.288,25.412,4.065,4.065,66.538,-53.918,-14.912
0.290,25.811,4.004,4.004,66.372,-54.262,-15.025
0.291,26.226,3.952,3.952,66.210,-54.623,-15.151
0.292,26.649,3.913,3.913,66.055,-54.993,-15.284
0.293,27.071,3.888,3.888,65.908,-55.365,-15.421
0.295,27.483,3.879,3.879,65.771,-55.729,-15.558
0.296,27.877,3.882,3.882,65.644,-56.077,-15.692
0.297,28.243,3.895,3.895,65.530,-56.401,-15.817
0.298,28.572,3.915,3.915,65.431,-56.693,-15.931
0.299,28.855,3.939,3.939,65.347,-56.945,-16.029
0.301,29.082,3.964,3.964,65.281,-57.148,-16.107
0.302,29.253,3.987,3.987,65.231,-57.301,-16.165
0.303,29.373,4.005,4.005,65.197,-57.409,-16.205
0.304,29.448,4.016,4.016,65.177,-57.477,-16.228
0.305,29.485,4.021,4.021,65.168,-57.511,-16.238
0.307,29.490,4.021,4.021,65.168,-57.516,-16.236
0.308,29.514,4.017,4.017,65.176,-57.496,-16.224
0.309,29.559,4.012,4.012,65.190,-57.457,-16.205
0.310,29.619,4.005,4.005,65.208,-57.405,-16.181
0.312,29.689,4.000,4.000,65.227,-57.344,-16.154
0.313,29.761,3.998,3.997,65.247,-57.281,-16.125
0.314,29.830,3.998,3.998,65.264,-57.219,-16.098
0.315,29.891,4.003,4.003,65.278,-57.164,-16.075
0.316,29.942,4.010,4.010,65.287,-57.119,-16.055
0.318,29.982,4.018,4.018,65.293,-57.083,-16.040
0.319,30.011,4.027,4.027,65.294,-57.056,-16.029
0.320,30.030,4.035,4.035,65.291,-57.039,-16.021
0.321,30.040,4.041,4.041,65.284,-57.032,-16.018
0.322,30.051,4.044,4.044,65.273,-57.035,-16.018
0.324,30.071,4.044,4.044,65.259,-57.049,-16.022
0.325,30.103,4.039,4.039,65.242,-57.074,-16.030
0.326,30.146,4.031,4.031,65.221,-57.110,-16.042
0.327,30.202,4.021,4.021,65.197,-57.158,-16.058
0.328,30.269,4.010,4.010,65.170,-57.217,-16.077
0.330,30.349,3.999,3.999,65.140,-57.288,-16.100
0.331,30.440,3.990,3.990,65.107,-57.368,-16.126
0.332,30.540,3.983,3.983,65.072,-57.457,-16.155
0.333,30.647,3.980,3.980,65.035,-57.552,-16.187
0.335,30.758,3.981,3.981,64.997,-57.651,-16.221
0.336,30.871,3.986,3.987,64.958,-57.751,-16.256
0.337,30.985,3.994,3.995,64.918,-57.851,-16.293
0.338,31.098,4.004,4.005,64.877,-57.949,-16.332
0.339,31.207,4.015,4.016,64.837,-58.043,-16.370
0.341,31.311,4.026,4.027,64.796,-58.130,-16.410
0.342,31.408,4.037,4.037,64.757,-58.209,-16.449
0.343,31.495,4.046,4.046,64.718,-58.278,-16.487
0.344,31.574,4.052,4.052,64.680,-58.335,-16.525
0.345,31.645,4.056,4.055,64.643,-58.383,-16.562
0.347,31.712,4.058,4.056,64.604,-58.424,-16.599
0.348,31.777,4.058,4.055,64.564,-58.460,-16.635
0.349,31.843,4.058,4.054,64.521,-58.495,-16.670
0.350,31.912,4.057,4.053,64.473,-58.531,-16.704
0.352,31.985,4.055,4.053,64.421,-58.570,-16.738
0.353,32.066,4.055,4.053,64.362,-58.615,-16.772
0.354,32.157,4.055,4.056,64.296,-58.668,-16.805
0.355,32.260,4.056,4.061,64.222,-58.732,-16.838
0.356,32.378,4.060,4.068,64.139,-58.809,-16.870
0.358,32.514,4.067,4.080,64.046,-58.902,-16.902
0.359,32.668,4.079,4.095,63.942,-59.011,-16.933
0.360,32.836,4.095,4.115,63.831,-59.134,-16.964
0.361,33.017,4.116,4.140,63.716,-59.269,-16.995
0.362,33.205,4.145,4.170,63.598,-59.414,-17.025
0.364,33.399,4.180,4.207,63.480,-59.564,-17.055
0.365,33.594,4.223,4.249,63.366,-59.719,-17.085
0.366,33.787,4.273,4.296,63.257,-59.876,-17.114
0.367,33.975,4.326,4.346,63.157,-60.033,-17.143
0.368,34.154,4.380,4.397,63.068,-60.185,-17.172
0.370,34.322,4.434,4.446,62.992,-60.333,-17.200
0.371,34.476,4.485,4.493,62.933,-60.472,-17.228
0.372,34.614,4.531,4.535,62.892,-60.601,-17.255
0.373,34.737,4.569,4.570,62.869,-60.718,-17.283
0.375,34.848,4.598,4.597,62.860,-60.826,-17.313
0.376,34.951,4.618,4.615,62.859,-60.923,-17.346
0.377,35.048,4.629,4.625,62.863,-61.012,-17.384
0.378,35.140,4.632,4.629,62.869,-61.093,-17.428
0.379,35.230,4.629,4.626,62.871,-61.166,-17.479
0.381,35.320,4.620,4.618,62.865,-61.234,-17.540
0.382,35.416,4.606,4.605,62.847,-61.295,-17.610
0.383,35.522,4.589,4.589,62.814,-61.352,-17.693
0.384,35.644,4.569,4.569,62.760,-61.405,-17.789
0.385,35.788,4.548,4.548,62.682,-61.454,-17.900
0.387,35.960,4.525,4.526,62.576,-61.501,-18.026
0.388,36.157,4.503,4.504,62.444,-61.546,-18.167
0.389,36.377,4.481,4.482,62.291,-61.590,-18.319
0.390,36.614,4.461,4.462,62.122,-61.632,-18.480
0.392,36.863,4.444,4.444,61.942,-61.673,-18.647
0.393,37.119,4.430,4.430,61.755,-61.713,-18.817
0.394,37.377,4.420,4.420,61.567,-61.753,-18.987
0.395,37.631,4.414,4.414,61.381,-61.793,-19.156
0.396,37.876,4.414,4.413,61.203,-61.834,-19.319
0.398,38.106,4.418,4.417,61.037,-61.875,-19.474
0.399,38.318,4.426,4.426,60.889,-61.917,-19.619
0.400,38.505,4.438,4.438,60.763,-61.961,-19.750
0.401,38.665,4.455,4.454,60.662,-62.006,-19.866
0.402,38.801,4.475,4.475,60.585,-62.052,-19.969
0.404,38.919,4.498,4.498,60.528,-62.099,-20.061
0.405,39.024,4.525,4.525,60.489,-62.147,-20.144
0.406,39.119,4.555,4.555,60.463,-62.196,-20.223
0.407,39.210,4.587,4.587,60.449,-62.244,-20.299
0.408,39.300,4.621,4.621,60.442,-62.291,-20.375
0.410,39.392,4.657,4.657,60.439,-62.338,-20.454
0.411,39.488,4.694,4.694,60.437,-62.384,-20.538
0.412,39.590,4.733,4.733,60.434,-62.428,-20.630
0.413,39.702,4.771,4.771,60.424,-62.471,-20.733
0.415,39.827,4.810,4.810,60.407,-62.511,-20.850
0.416,39.966,4.848,4.848,60.379,-62.549,-20.981
0.417,40.118,4.885,4.885,60.342,-62.584,-21.124
0.418,40.280,4.920,4.920,60.298,-62.617,-21.276
0.419,40.448,4.952,4.952,60.248,-62.647,-21.434
0.421,40.620,4.981,4.981,60.194,-62.675,-21.594
0.422,40.791,5.005,5.005,60.138,-62.701,-21.754
0.423,40.959,5.023,5.023,60.080,-62.725,-21.910
0.424,41.120,5.036,5.036,60.024,-62.746,-22.060
0.425,41.271,5.042,5.042,59.971,-62.765,-22.200
0.427,41.408,5.043,5.043,59.921,-62.782,-22.326
0.428,41.528,5.039,5.039,59.878,-62.797,-22.437
0.429,41.627,5.033,5.033,59.842,-62.810,-22.529
0.430,41.705,5.025,5.025,59.815,-62.821,-22.601
0.432,41.763,5.017,5.017,59.794,-62.829,-22.654
0.433,41.804,5.011,5.011,59.781,-62.837,-22.692
0.434,41.830,5.006,5.006,59.773,-62.842,-22.716
0.435,41.843,5.006,5.006,59.770,-62.846,-22.729
0.436,41.847,5.009,5.009,59.771,-62.849,-22.731
0.438,41.854,5.016,5.016,59.776,-62.851,-22.726
0.439,41.868,5.024,5.024,59.784,-62.852,-22.715
0.440,41.885,5.034,5.034,59.793,-62.851,-22.701
0.441,41.904,5.045,5.045,59.803,-62.851,-22.685
0.442,41.923,5.055,5.055,59.814,-62.849,-22.669
0.444,41.939,5.065,5.065,59.824,-62.848,-22.656
0.445,41.953,5.073,5.073,59.833,-62.846,-22.646
0.446,41.963,5.079,5.079,59.841,-62.844,-22.640
0.447,41.971,5.084,5.084,59.848,-62.843,-22.637
0.448,41.977,5.087,5.087,59.854,-62.843,-22.637
0.450,41.983,5.088,5.088,59.859,-62.845,-22.641
0.451,41.992,5.089,5.089,59.862,-62.848,-22.649
0.452,42.004,5.089,5.089,59.863,-62.854,-22.660
0.453,42.021,5.089,5.089,59.863,-62.862,-22.675
0.455,42.043,5.089,5.089,59.862,-62.873,-22.693
0.456,42.069,5.090,5.090,59.858,-62.887,-22.715
0.457,42.101,5.090,5.090,59.853,-62.905,-22.741
0.458,42.139,5.090,5.090,59.845,-62.926,-22.771
0.459,42.182,5.090,5.090,59.836,-62.952,-22.805
0.461,42.231,5.090,5.090,59.823,-62.981,-22.841
0.462,42.284,5.089,5.089,59.808,-63.013,-22.881
0.463,42.342,5.088,5.088,59.789,-63.049,-22.924
0.464,42.405,5.086,5.086,59.767,-63.086,-22.969
0.465,42.472,5.083,5.083,59.741,-63.127,-23.016
0.467,42.544,5.079,5.079,59.711,-63.169,-23.065
0.468,42.619,5.074,5.074,59.676,-63.212,-23.115
0.469,42.699,5.069,5.069,59.636,-63.258,-23.167
0.470,42.782,5.062,5.062,59.592,-63.304,-23.220
0.472,42.869,5.056,5.056,59.541,-63.351,-23.274
0.473,42.960,5.048,5.048,59.486,-63.398,-23.329
0.474,43.055,5.040,5.040,59.425,-63.446,-23.383
0.475,43.153,5.032,5.032,59.361,-63.495,-23.439
0.476,43.252,5.024,5.024,59.295,-63.544,-23.495
0.478,43.354,5.016,5.016,59.228,-63.594,-23.551
0.479,43.456,5.010,5.010,59.160,-63.645,-23.609
0.480,43.558,5.006,5.006,59.093,-63.696,-23.667
0.481,43.660,5.005,5.005,59.029,-63.749,-23.725
0.482,43.761,5.008,5.008,58.967,-63.803,-23.784
0.484,43.860,5.015,5.015,58.910,-63.857,-23.844
0.485,43.957,5.027,5.027,58.859,-63.913,-23.905
0.486,44.052,5.045,5.045,58.814,-63.970,-23.966
0.487,44.146,5.068,5.068,58.775,-64.029,-24.029
0.488,44.241,5.095,5.095,58.742,-64.092,-24.092
0.490,44.339,5.124,5.124,58.711,-64.159,-24.155
0.491,44.441,5.156,5.156,58.682,-64.233,-24.220
0.492,44.550,5.187,5.187,58.653,-64.315,-24.286
0.493,44.669,5.219,5.219,58.621,-64.408,-24.352
0.495,44.798,5.248,5.248,58.585,-64.512,-24.419
0.496,44.939,5.276,5.276,58.543,-64.629,-24.488
0.497,45.097,5.300,5.300,58.494,-64.761,-24.557
0.498,45.271,5.321,5.321,58.435,-64.910,-24.627
0.499,45.466,5.340,5.340,58.364,-65.076,-24.698
0.501,45.683,5.355,5.355,58.280,-65.263,-24.771
0.502,45.921,5.368,5.368,58.184,-65.468,-24.844
0.503,46.176,5.378,5.378,58.077,-65.687,-24.916
0.504,46.443,5.385,5.385,57.961,-65.917,-24.988
0.505,46.717,5.390,5.390,57.839,-66.152,-25.059
0.507,46.994,5.392,5.392,57.713,-66.389,-25.127
