"T","Distance","Radius","FreeRadius","X","Y","Z"
0.000,0.000,2.386,2.386,312.259,332.887,325.155
0.001,0.139,2.426,2.426,312.236,332.849,325.024
0.003,0.277,2.467,2.467,312.212,332.811,324.893
0.004,0.415,2.509,2.509,312.187,332.774,324.762
0.006,0.553,2.553,2.553,312.162,332.738,324.631
0.007,0.691,2.600,2.600,312.137,332.702,324.500
0.008,0.829,2.650,2.650,312.111,332.668,324.370
0.010,0.966,2.705,2.705,312.084,332.636,324.239
0.011,1.102,2.764,2.764,312.056,332.605,324.109
0.013,1.239,2.827,2.827,312.026,332.576,323.979
0.014,1.374,2.894,2.894,311.996,332.549,323.850
0.016,1.510,2.962,2.962,311.964,332.525,323.720
0.017,1.645,3.032,3.032,311.930,332.504,323.592
0.018,1.779,3.101,3.101,311.894,332.485,323.463
0.020,1.913,3.170,3.170,311.856,332.470,323.335
0.021,2.047,3.236,3.236,311.817,332.459,323.208
0.023,2.178,3.299,3.299,311.777,332.451,323.084
0.024,2.307,3.360,3.360,311.735,332.449,322.962
0.025,2.433,3.416,3.416,311.692,332.451,322.844
0.027,2.555,3.467,3.467,311.649,332.458,322.730
0.028,2.672,3.513,3.513,311.606,332.471,322.621
0.030,2.785,3.554,3.554,311.563,332.490,322.519
0.031,2.893,3.587,3.587,311.520,332.516,322.423
0.033,2.995,3.615,3.615,311.478,332.549,322.336
0.034,3.093,3.636,3.636,311.437,332.589,322.257
0.035,3.186,3.653,3.653,311.397,332.637,322.187
0.037,3.276,3.665,3.665,311.359,332.693,322.127
0.038,3.365,3.672,3.672,311.323,332.758,322.079
0.040,3.455,3.676,3.676,311.288,332.831,322.040
0.041,3.548,3.678,3.678,311.253,332.912,322.011
0.042,3.647,3.677,3.677,311.217,333.001,321.989
0.044,3.751,3.675,3.675,311.179,333.097,321.973
0.045,3.863,3.673,3.673,311.137,333.200,321.962
0.047,3.982,3.671,3.671,311.090,333.309,321.954
0.048,4.109,3.672,3.672,311.038,333.425,321.950
0.050,4.244,3.676,3.676,310.979,333.546,321.946
0.051,4.387,3.683,3.683,310.913,333.673,321.942
0.052,4.539,3.695,3.695,310.837,333.804,321.936
0.054,4.700,3.712,3.712,310.751,333.940,321.927
0.055,4.871,3.733,3.733,310.654,334.081,321.915
0.057,5.053,3.758,3.758,310.545,334.225,321.897
0.058,5.244,3.788,3.788,310.425,334.372,321.874
0.059,5.443,3.822,3.822,310.295,334.519,321.847
0.061,5.646,3.860,3.860,310.158,334.667,321.816
0.062,5.852,3.902,3.902,310.016,334.812,321.783
0.064,6.058,3.947,3.947,309.870,334.954,321.749
0.065,6.262,3.994,3.994,309.724,335.091,321.715
0.066,6.460,4.043,4.043,309.578,335.221,321.681
0.068,6.652,4.093,4.093,309.434,335.344,321.648
0.069,6.833,4.143,4.143,309.296,335.457,321.618
0.071,7.001,4.191,4.191,309.164,335.559,321.592
0.072,7.155,4.238,4.238,309.041,335.648,321.569
0.074,7.291,4.283,4.283,308.929,335.723,321.552
0.075,7.408,4.326,4.326,308.829,335.783,321.541
0.076,7.506,4.368,4.368,308.742,335.828,321.536
0.078,7.588,4.407,4.407,308.668,335.862,321.535
0.079,7.656,4.444,4.444,308.604,335.887,321.538
0.081,7.712,4.479,4.479,308.552,335.906,321.543
0.082,7.758,4.511,4.511,308.509,335.921,321.549
0.083,7.795,4.541,4.541,308.476,335.936,321.555
0.085,7.825,4.568,4.568,308.451,335.953,321.559
0.086,7.853,4.591,4.591,308.434,335.975,321.561
0.088,7.885,4.610,4.610,308.423,336.005,321.559
0.089,7.925,4.624,4.624,308.419,336.045,321.552
0.091,7.980,4.633,4.633,308.420,336.098,321.540
0.092,8.052,4.636,4.636,308.426,336.167,321.519
0.093,8.145,4.635,4.635,308.435,336.254,321.491
0.095,8.257,4.630,4.630,308.448,336.360,321.454
0.096,8.386,4.622,4.622,308.464,336.480,321.410
0.098,8.527,4.613,4.613,308.481,336.611,321.360
0.099,8.677,4.605,4.605,308.501,336.749,321.305
0.100,8.832,4.597,4.597,308.521,336.890,321.247
0.102,8.987,4.593,4.593,308.543,337.032,321.186
0.103,9.140,4.591,4.591,308.564,337.170,321.125
0.105,9.286,4.591,4.591,308.585,337.301,321.063
0.106,9.422,4.591,4.591,308.605,337.421,321.004
0.107,9.543,4.591,4.591,308.624,337.527,320.947
0.109,9.647,4.589,4.589,308.641,337.614,320.893
0.110,9.730,4.585,4.585,308.656,337.680,320.845
0.112,9.789,4.577,4.577,308.668,337.721,320.804
0.113,9.829,4.565,4.565,308.676,337.737,320.769
0.115,9.857,4.552,4.552,308.683,337.733,320.741
0.116,9.886,4.538,4.538,308.686,337.714,320.720
0.117,9.919,4.524,4.524,308.688,337.685,320.705
0.119,9.954,4.513,4.513,308.687,337.651,320.697
0.120,9.988,4.505,4.505,308.685,337.617,320.695
0.122,10.018,4.502,4.502,308.682,337.587,320.699
0.123,10.041,4.505,4.505,308.677,337.567,320.709
0.124,10.058,4.512,4.512,308.672,337.563,320.725
0.126,10.085,4.524,4.524,308.667,337.578,320.747
0.127,10.133,4.539,4.539,308.661,337.617,320.774
0.129,10.210,4.557,4.557,308.656,337.687,320.806
0.130,10.321,4.576,4.576,308.651,337.791,320.843
0.132,10.467,4.596,4.596,308.646,337.931,320.885
0.133,10.644,4.617,4.617,308.642,338.102,320.931
0.134,10.846,4.638,4.638,308.639,338.299,320.978
0.136,11.068,4.660,4.660,308.637,338.515,321.026
0.137,11.305,4.682,4.682,308.635,338.747,321.073
0.139,11.551,4.706,4.706,308.633,338.989,321.118
0.140,11.801,4.729,4.729,308.633,339.236,321.160
0.141,12.050,4.754,4.754,308.633,339.482,321.197
0.143,12.292,4.779,4.779,308.633,339.722,321.228
0.144,12.522,4.805,4.805,308.635,339.951,321.252
0.146,12.735,4.828,4.828,308.637,340.164,321.267
0.147,12.927,4.850,4.850,308.639,340.355,321.272
0.149,13.091,4.867,4.867,308.643,340.519,321.266
0.150,13.228,4.880,4.880,308.646,340.654,321.248
0.151,13.343,4.886,4.886,308.649,340.765,321.217
0.153,13.444,4.886,4.886,308.649,340.857,321.174
0.154,13.539,4.879,4.879,308.645,340.934,321.118
0.156,13.636,4.867,4.867,308.637,341.001,321.050
0.157,13.739,4.851,4.851,308.622,341.065,320.969
0.158,13.855,4.832,4.832,308.599,341.128,320.875
0.160,13.986,4.811,4.811,308.568,341.197,320.769
0.161,14.135,4.789,4.789,308.526,341.277,320.649
0.163,14.307,4.768,4.768,308.473,341.372,320.516
0.164,14.505,4.750,4.750,308.406,341.487,320.371
0.165,14.732,4.739,4.739,308.326,341.628,320.212
0.167,14.993,4.738,4.738,308.229,341.800,320.040
0.168,15.290,4.752,4.752,308.117,342.004,319.855
0.170,15.618,4.784,4.784,307.992,342.236,319.661
0.171,15.969,4.838,4.838,307.857,342.490,319.461
0.173,16.336,4.917,4.917,307.714,342.761,319.257
0.174,16.714,5.018,5.018,307.567,343.044,319.055
0.175,17.094,5.135,5.135,307.419,343.332,318.856
0.177,17.469,5.262,5.262,307.273,343.619,318.664
0.178,17.833,5.391,5.391,307.131,343.901,318.482
0.180,18.179,5.516,5.516,306.998,344.172,318.314
0.181,18.498,5.631,5.631,306.875,344.425,318.163
0.182,18.785,5.728,5.728,306.765,344.656,318.032
0.184,19.032,5.806,5.806,306.673,344.859,317.924
0.185,19.233,5.868,5.868,306.601,345.027,317.844
0.187,19.383,5.914,5.914,306.550,345.158,317.792
0.188,19.488,5.950,5.950,306.517,345.255,317.765
0.190,19.556,5.977,5.977,306.501,345.320,317.758
0.191,19.597,5.998,5.998,306.496,345.360,317.768
0.192,19.624,6.016,6.016,306.500,345.377,317.788
0.194,19.653,6.032,6.032,306.509,345.376,317.815
0.195,19.687,6.047,6.047,306.520,345.361,317.845
0.197,19.725,6.060,6.060,306.529,345.337,317.872
0.198,19.761,6.071,6.071,306.533,345.307,317.892
0.199,19.794,6.078,6.078,306.529,345.275,317.900
0.201,19.829,6.083,6.083,306.513,345.246,317.892
0.202,19.876,6.083,6.083,306.481,345.224,317.864
0.204,19.951,6.081,6.081,306.431,345.213,317.810
0.205,20.060,6.077,6.077,306.359,345.216,317.728
0.207,20.202,6.073,6.073,306.268,345.232,317.620
0.208,20.373,6.072,6.072,306.161,345.259,317.490
0.209,20.567,6.075,6.075,306.039,345.295,317.342
0.211,20.780,6.084,6.084,305.907,345.338,317.181
0.212,21.006,6.103,6.103,305.767,345.385,317.011
0.214,21.239,6.130,6.130,305.622,345.434,316.835
0.215,21.474,6.165,6.165,305.474,345.484,316.658
0.216,21.707,6.204,6.204,305.327,345.531,316.484
0.218,21.931,6.245,6.245,305.184,345.575,316.317
0.219,22.142,6.283,6.283,305.047,345.612,316.162
0.221,22.334,6.317,6.317,304.919,345.641,316.021
0.222,22.503,6.344,6.344,304.803,345.659,315.900
0.223,22.644,6.360,6.360,304.702,345.665,315.802
0.225,22.760,6.367,6.367,304.615,345.661,315.725
0.226,22.853,6.368,6.368,304.542,345.649,315.668
0.228,22.927,6.364,6.364,304.482,345.631,315.628
0.229,22.985,6.359,6.359,304.435,345.611,315.603
0.231,23.028,6.355,6.355,304.398,345.592,315.591
0.232,23.058,6.353,6.353,304.373,345.575,315.588
0.233,23.078,6.357,6.357,304.357,345.564,315.594
0.235,23.091,6.364,6.364,304.351,345.562,315.604
0.236,23.107,6.373,6.373,304.352,345.571,315.618
0.238,23.135,6.380,6.380,304.362,345.593,315.632
0.239,23.180,6.382,6.383,304.378,345.633,315.645
0.240,23.243,6.378,6.378,304.400,345.691,315.653
0.242,23.327,6.363,6.363,304.427,345.771,315.655
0.243,23.433,6.335,6.335,304.458,345.872,315.652
0.245,23.556,6.296,6.295,304.493,345.990,315.642
0.246,23.695,6.247,6.246,304.529,346.123,315.629
0.248,23.846,6.192,6.191,304.567,346.268,315.612
0.249,24.005,6.134,6.133,304.604,346.422,315.592
0.250,24.172,6.076,6.075,304.640,346.583,315.570
0.252,24.341,6.020,6.020,304.673,346.748,315.547
0.253,24.511,5.971,5.971,304.703,346.913,315.524
0.255,24.678,5.928,5.929,304.729,347.077,315.502
0.256,24.840,5.891,5.892,304.749,347.236,315.482
0.257,24.994,5.857,5.859,304.762,347.388,315.464
0.259,25.136,5.826,5.829,304.768,347.530,315.449
0.260,25.266,5.797,5.799,304.764,347.659,315.439
0.262,25.384,5.767,5.768,304.752,347.776,315.433
0.263,25.492,5.736,5.735,304.733,347.883,315.431
0.264,25.594,5.702,5.699,304.707,347.981,315.432
0.266,25.691,5.665,5.660,304.676,348.073,315.438
0.267,25.786,5.627,5.620,304.640,348.160,315.446
0.269,25.880,5.587,5.579,304.601,348.245,315.458
0.270,25.975,5.545,5.537,304.559,348.329,315.473
0.272,26.073,5.501,5.497,304.516,348.415,315.490
0.273,26.174,5.456,5.458,304.472,348.504,315.509
0.274,26.280,5.411,5.421,304.429,348.598,315.530
0.276,26.392,5.364,5.385,304.388,348.700,315.553
0.277,26.512,5.319,5.350,304.349,348.811,315.578
0.279,26.641,5.274,5.316,304.313,348.933,315.604
0.280,26.780,5.231,5.281,304.282,349.066,315.631
0.281,26.927,5.190,5.245,304.253,349.207,315.659
0.283,27.080,5.152,5.208,304.228,349.355,315.687
0.284,27.237,5.118,5.169,304.206,349.508,315.715
0.286,27.396,5.086,5.129,304.186,349.663,315.744
0.287,27.556,5.057,5.089,304.169,349.820,315.772
0.289,27.715,5.028,5.051,304.153,349.975,315.799
0.290,27.869,4.999,5.015,304.139,350.127,315.826
0.291,28.019,4.970,4.983,304.126,350.273,315.852
0.293,28.161,4.939,4.956,304.114,350.413,315.876
0.294,28.293,4.906,4.935,304.103,350.543,315.899
0.296,28.415,4.871,4.918,304.092,350.662,315.921
0.297,28.523,4.836,4.907,304.082,350.768,315.940
0.298,28.618,4.803,4.898,304.071,350.860,315.956
0.300,28.701,4.773,4.892,304.059,350.941,315.971
0.301,28.774,4.748,4.888,304.047,351.013,315.982
0.303,28.840,4.728,4.884,304.035,351.077,315.990
0.304,28.900,4.715,4.880,304.021,351.135,315.994
0.306,28.956,4.709,4.874,304.007,351.189,315.995
0.307,29.010,4.706,4.866,303.991,351.241,315.992
0.308,29.065,4.706,4.855,303.974,351.293,315.984
0.310,29.123,4.704,4.840,303.955,351.346,315.971
0.311,29.186,4.700,4.820,303.935,351.403,315.953
0.313,29.255,4.691,4.794,303.913,351.464,315.931
0.314,29.333,4.675,4.762,303.889,351.533,315.902
0.315,29.422,4.653,4.723,303.862,351.611,315.867
0.317,29.522,4.626,4.681,303.833,351.698,315.828
0.318,29.632,4.598,4.639,303.802,351.793,315.783
0.320,29.749,4.570,4.597,303.769,351.895,315.737
0.321,29.872,4.544,4.560,303.733,352.002,315.688
0.322,30.000,4.524,4.529,303.695,352.115,315.640
0.324,30.131,4.511,4.507,303.655,352.230,315.593
0.325,30.263,4.506,4.494,303.613,352.347,315.548
0.327,30.396,4.505,4.487,303.569,352.466,315.507
0.328,30.527,4.507,4.486,303.522,352.583,315.472
0.330,30.656,4.508,4.488,303.474,352.699,315.443
0.331,30.782,4.507,4.491,303.423,352.812,315.422
0.332,30.904,4.500,4.492,303.370,352.921,315.411
0.334,31.021,4.486,4.491,303.315,353.024,315.410
0.335,31.134,4.463,4.486,303.258,353.122,315.420
0.337,31.247,4.435,4.477,303.198,353.216,315.439
0.338,31.361,4.402,4.466,303.135,353.307,315.465
0.339,31.477,4.368,4.454,303.068,353.397,315.496
0.341,31.597,4.335,4.441,302.997,353.487,315.531
0.342,31.721,4.305,4.429,302.922,353.580,315.567
0.344,31.851,4.281,4.417,302.842,353.676,315.602
0.345,31.988,4.265,4.408,302.756,353.777,315.634
0.347,32.132,4.256,4.402,302.665,353.885,315.662
0.348,32.286,4.254,4.399,302.567,354.002,315.684
0.349,32.451,4.259,4.400,302.462,354.128,315.697
0.351,32.628,4.270,4.406,302.350,354.266,315.699
0.352,32.821,4.286,4.418,302.230,354.416,315.690
0.354,33.030,4.309,4.436,302.103,354.580,315.667
0.355,33.252,4.337,4.461,301.969,354.755,315.633
0.356,33.485,4.369,4.493,301.832,354.937,315.589
0.358,33.724,4.406,4.530,301.693,355.125,315.538
0.359,33.966,4.446,4.572,301.553,355.314,315.480
0.361,34.208,4.489,4.619,301.416,355.503,315.418
0.362,34.445,4.535,4.669,301.281,355.688,315.354
0.364,34.675,4.583,4.723,301.152,355.867,315.289
0.365,34.893,4.633,4.778,301.031,356.036,315.225
0.366,35.096,4.682,4.834,300.918,356.193,315.164
0.368,35.280,4.730,4.889,300.816,356.336,315.109
0.369,35.440,4.775,4.941,300.727,356.460,315.059
0.371,35.574,4.815,4.987,300.653,356.564,315.019
0.372,35.679,4.849,5.027,300.595,356.645,314.987
0.373,35.757,4.875,5.058,300.551,356.706,314.965
0.375,35.812,4.891,5.079,300.520,356.748,314.950
0.376,35.845,4.898,5.090,300.501,356.775,314.942
0.378,35.861,4.899,5.093,300.491,356.787,314.940
0.379,35.863,4.896,5.091,300.491,356.787,314.942
0.380,35.876,4.889,5.084,300.497,356.778,314.948
0.382,35.898,4.882,5.075,300.509,356.761,314.956
0.383,35.927,4.876,5.065,300.525,356.740,314.966
0.385,35.959,4.873,5.057,300.544,356.715,314.976
0.386,35.993,4.873,5.050,300.564,356.689,314.985
0.388,36.025,4.876,5.045,300.583,356.665,314.993
0.389,36.052,4.881,5.041,300.601,356.645,314.998
0.390,36.073,4.888,5.039,300.616,356.630,314.999
0.392,36.088,4.896,5.038,300.627,356.620,314.997
0.393,36.098,4.904,5.038,300.636,356.616,314.993
0.395,36.106,4.912,5.039,300.641,356.617,314.987
0.396,36.115,4.920,5.039,300.643,356.623,314.981
0.397,36.128,4.927,5.040,300.642,356.633,314.974
0.399,36.144,4.932,5.040,300.638,356.648,314.967
0.400,36.165,4.937,5.039,300.632,356.667,314.962
0.402,36.190,4.939,5.036,300.622,356.689,314.959
0.403,36.219,4.940,5.031,300.610,356.716,314.958
0.405,36.253,4.939,5.023,300.595,356.746,314.960
0.406,36.292,4.935,5.012,300.577,356.780,314.966
0.407,36.335,4.930,4.999,300.556,356.816,314.977
0.409,36.383,4.923,4.985,300.534,356.856,314.993
0.410,36.436,4.916,4.971,300.508,356.898,315.014
0.412,36.494,4.908,4.957,300.481,356.942,315.039
0.413,36.555,4.900,4.945,300.453,356.987,315.068
0.414,36.618,4.893,4.935,300.424,357.034,315.099
0.416,36.684,4.888,4.928,300.394,357.081,315.133
0.417,36.750,4.883,4.923,300.364,357.128,315.170
0.419,36.817,4.878,4.921,300.334,357.175,315.207
0.420,36.884,4.875,4.921,300.305,357.221,315.245
0.421,36.949,4.872,4.921,300.277,357.266,315.283
0.423,37.012,4.870,4.923,300.250,357.309,315.321
0.424,37.073,4.868,4.926,300.225,357.350,315.358
0.426,37.129,4.866,4.929,300.203,357.389,315.393
0.427,37.182,4.865,4.932,300.183,357.424,315.426
0.429,37.231,4.864,4.935,300.165,357.458,315.457
0.430,37.280,4.863,4.938,300.148,357.492,315.488
0.431,37.330,4.863,4.939,300.130,357.527,315.519
0.433,37.383,4.863,4.940,300.112,357.565,315.551
0.434,37.442,4.863,4.939,300.091,357.608,315.585
0.436,37.507,4.864,4.937,300.068,357.658,315.622
0.437,37.583,4.865,4.934,300.040,357.715,315.662
0.438,37.670,4.867,4.931,300.008,357.782,315.706
0.440,37.770,4.870,4.930,299.969,357.860,315.756
0.441,37.886,4.873,4.930,299.923,357.951,315.812
0.443,38.020,4.878,4.934,299.869,358.056,315.875
0.444,38.174,4.884,4.943,299.807,358.178,315.946
0.446,38.350,4.891,4.956,299.734,358.317,316.025
0.447,38.545,4.901,4.975,299.652,358.472,316.112
0.448,38.756,4.915,5.001,299.563,358.639,316.204
0.450,38.980,4.936,5.032,299.468,358.817,316.301
0.451,39.212,4.963,5.070,299.368,359.002,316.400
0.453,39.449,5.000,5.115,299.265,359.191,316.499
0.454,39.687,5.047,5.167,299.160,359.381,316.597
0.455,39.923,5.107,5.226,299.056,359.570,316.692
0.457,40.153,5.177,5.291,298.952,359.754,316.783
0.458,40.374,5.253,5.360,298.852,359.932,316.866
0.460,40.581,5.332,5.428,298.756,360.099,316.942
0.461,40.771,5.409,5.495,298.666,360.253,317.008
0.463,40.940,5.481,5.557,298.583,360.391,317.062
0.464,41.087,5.544,5.611,298.509,360.510,317.102
0.465,41.210,5.593,5.655,298.444,360.611,317.129
0.467,41.313,5.628,5.688,298.387,360.696,317.145
0.468,41.399,5.650,5.710,298.338,360.766,317.150
0.470,41.471,5.663,5.724,298.295,360.823,317.146
0.471,41.531,5.667,5.730,298.257,360.869,317.134
0.472,41.584,5.664,5.728,298.225,360.906,317.115
0.474,41.632,5.657,5.721,298.197,360.936,317.091
0.475,41.677,5.648,5.708,298.172,360.961,317.063
0.477,41.720,5.638,5.691,298.151,360.983,317.032
0.478,41.763,5.626,5.671,298.131,361.003,317.000
0.479,41.806,5.614,5.649,298.112,361.024,316.967
0.481,41.848,5.601,5.625,298.094,361.047,316.936
0.482,41.892,5.587,5.601,298.076,361.074,316.907
0.484,41.938,5.571,5.577,298.057,361.107,316.881
0.485,41.987,5.555,5.554,298.038,361.146,316.858
0.487,42.040,5.538,5.533,298.019,361.191,316.835
0.488,42.099,5.521,5.514,298.001,361.242,316.814
0.489,42.165,5.505,5.498,297.983,361.301,316.794
0.491,42.237,5.490,5.484,297.965,361.369,316.773
0.492,42.317,5.478,5.474,297.949,361.444,316.752
0.494,42.406,5.468,5.466,297.934,361.529,316.730
0.495,42.503,5.462,5.462,297.921,361.623,316.706
0.496,42.611,5.460,5.461,297.910,361.727,316.680
0.498,42.730,5.461,5.463,297.900,361.841,316.651
0.499,42.860,5.463,5.466,297.894,361.967,316.620
0.501,43.001,5.467,5.469,297.889,362.104,316.584
0.502,43.154,5.470,5.472,297.887,362.251,316.544
0.504,43.315,5.472,5.473,297.888,362.407,316.501
0.505,43.482,5.471,5.471,297.891,362.567,316.455
0.506,43.652,5.467,5.466,297.896,362.730,316.406
0.508,43.823,5.458,5.457,297.903,362.892,316.355
0.509,43.991,5.446,5.445,297.911,363.052,316.302
0.511,44.155,5.430,5.428,297.920,363.206,316.248
0.512,44.311,5.410,5.409,297.931,363.352,316.192
0.513,44.458,5.387,5.386,297.943,363.487,316.135
0.515,44.592,5.359,5.359,297.955,363.608,316.079
0.516,44.713,5.329,5.330,297.968,363.713,316.022
0.518,44.816,5.295,5.298,297.981,363.799,315.966
0.519,44.902,5.262,5.266,297.994,363.864,315.911
0.521,44.973,5.228,5.234,298.008,363.907,315.857
0.522,45.032,5.198,5.203,298.022,363.934,315.806
0.523,45.084,5.172,5.176,298.037,363.948,315.758
0.525,45.130,5.151,5.153,298.053,363.954,315.715
0.526,45.172,5.138,5.135,298.072,363.957,315.678
0.528,45.209,5.131,5.122,298.093,363.961,315.647
0.529,45.243,5.126,5.111,298.116,363.970,315.624
0.530,45.279,5.120,5.101,298.143,363.990,315.611
0.532,45.325,5.109,5.089,298.173,364.025,315.607
0.533,45.389,5.090,5.074,298.208,364.078,315.614
0.535,45.478,5.060,5.052,298.247,364.155,315.633
0.536,45.597,5.014,5.024,298.291,364.261,315.665
0.537,45.750,4.955,4.987,298.341,364.399,315.711
0.539,45.940,4.887,4.946,298.396,364.570,315.771
0.540,46.161,4.814,4.902,298.455,364.770,315.843
0.542,46.406,4.742,4.858,298.518,364.993,315.924
0.543,46.670,4.676,4.816,298.583,365.233,316.013
0.545,46.948,4.621,4.780,298.649,365.485,316.108
0.546,47.232,4.582,4.750,298.716,365.744,316.205
0.547,47.517,4.559,4.728,298.781,366.003,316.302
0.549,47.796,4.550,4.714,298.845,366.258,316.399
0.550,48.065,4.550,4.706,298.906,366.502,316.491
0.552,48.316,4.554,4.703,298.963,366.731,316.577
0.553,48.544,4.558,4.704,299.015,366.939,316.655
0.554,48.742,4.558,4.708,299.061,367.119,316.723
0.556,48.905,4.549,4.713,299.101,367.268,316.777
0.557,49.029,4.529,4.718,299.132,367.381,316.818
0.559,49.119,4.501,4.724,299.156,367.462,316.846
0.560,49.177,4.471,4.729,299.174,367.515,316.864
0.562,49.207,4.440,4.733,299.185,367.542,316.871
0.563,49.216,4.413,4.736,299.191,367.549,316.871
0.564,49.229,4.394,4.738,299.192,367.537,316.864
0.566,49.258,4.387,4.737,299.188,367.511,316.852
0.567,49.298,4.394,4.734,299.180,367.475,316.837
0.569,49.345,4.412,4.729,299.169,367.432,316.821
0.570,49.397,4.437,4.724,299.154,367.385,316.804
0.571,49.448,4.466,4.720,299.138,367.339,316.788
0.573,49.496,4.495,4.718,299.119,367.297,316.776
0.574,49.537,4.519,4.719,299.099,367.262,316.768
0.576,49.570,4.536,4.724,299.078,367.237,316.765
