"T","Distance","Radius","FreeRadius","X","Y","Z"
0.000,0.000,3.018,3.018,180.539,184.903,180.277
0.001,0.204,3.021,3.021,180.439,184.881,180.454
0.003,0.405,3.024,3.024,180.341,184.859,180.628
0.004,0.598,3.030,3.030,180.250,184.835,180.796
0.005,0.781,3.038,3.038,180.165,184.809,180.957
0.007,0.951,3.052,3.052,180.092,184.779,181.107
0.008,1.104,3.070,3.070,180.032,184.746,181.243
0.009,1.237,3.096,3.096,179.987,184.708,181.363
0.011,1.350,3.129,3.129,179.961,184.665,181.464
0.012,1.444,3.170,3.170,179.955,184.615,181.544
0.013,1.526,3.220,3.220,179.974,184.558,181.599
0.015,1.609,3.278,3.278,180.019,184.494,181.628
0.016,1.713,3.343,3.343,180.092,184.421,181.627
0.017,1.845,3.417,3.417,180.192,184.339,181.598
0.019,2.006,3.499,3.499,180.314,184.249,181.546
0.020,2.188,3.589,3.589,180.452,184.150,181.476
0.021,2.388,3.687,3.687,180.599,184.044,181.394
0.022,2.598,3.790,3.790,180.752,183.930,181.305
0.024,2.813,3.896,3.896,180.903,183.809,181.213
0.025,3.026,4.001,4.001,181.047,183.680,181.125
0.026,3.231,4.102,4.102,181.180,183.545,181.044
0.028,3.425,4.197,4.197,181.294,183.403,180.977
0.029,3.605,4.283,4.283,181.385,183.255,180.929
0.030,3.773,4.356,4.356,181.446,183.101,180.904
0.032,3.935,4.414,4.414,181.475,182.942,180.907
0.033,4.101,4.460,4.460,181.475,182.778,180.932
0.034,4.276,4.495,4.495,181.449,182.610,180.977
0.036,4.461,4.523,4.523,181.403,182.441,181.035
0.037,4.656,4.547,4.547,181.340,182.271,181.104
0.038,4.855,4.568,4.568,181.265,182.100,181.177
0.040,5.057,4.589,4.589,181.182,181.932,181.251
0.041,5.257,4.613,4.613,181.096,181.765,181.320
0.042,5.450,4.642,4.642,181.010,181.603,181.380
0.044,5.633,4.675,4.675,180.930,181.445,181.427
0.045,5.803,4.713,4.713,180.860,181.293,181.456
0.046,5.958,4.756,4.756,180.804,181.149,181.463
0.048,6.102,4.805,4.805,180.762,181.012,181.447
0.049,6.240,4.859,4.859,180.732,180.882,181.411
0.050,6.376,4.919,4.919,180.714,180.758,181.359
0.052,6.510,4.985,4.985,180.706,180.641,181.293
0.053,6.645,5.055,5.055,180.706,180.531,181.216
0.054,6.780,5.128,5.128,180.711,180.425,181.132
0.056,6.914,5.202,5.202,180.721,180.326,181.043
0.057,7.046,5.275,5.275,180.734,180.231,180.952
0.058,7.174,5.344,5.344,180.748,180.141,180.862
0.060,7.296,5.408,5.408,180.762,180.055,180.776
0.061,7.410,5.465,5.465,180.774,179.974,180.697
0.062,7.515,5.514,5.514,180.782,179.896,180.627
0.063,7.611,5.556,5.556,180.787,179.822,180.566
0.065,7.700,5.592,5.592,180.789,179.752,180.512
0.066,7.782,5.623,5.623,180.789,179.684,180.465
0.067,7.858,5.651,5.651,180.787,179.620,180.424
0.069,7.929,5.678,5.678,180.783,179.559,180.388
0.070,7.995,5.704,5.704,180.777,179.502,180.356
0.071,8.057,5.730,5.730,180.771,179.446,180.328
0.073,8.116,5.758,5.758,180.764,179.394,180.302
0.074,8.172,5.787,5.787,180.756,179.344,180.278
0.075,8.226,5.815,5.815,180.748,179.296,180.255
0.077,8.277,5.843,5.843,180.741,179.251,180.232
0.078,8.326,5.870,5.870,180.734,179.208,180.209
0.079,8.373,5.896,5.896,180.728,179.168,180.186
0.081,8.417,5.920,5.920,180.722,179.130,180.163
0.082,8.459,5.941,5.941,180.716,179.095,180.142
0.083,8.497,5.960,5.960,180.711,179.063,180.122
0.085,8.531,5.976,5.976,180.706,179.035,180.102
0.086,8.562,5.990,5.990,180.702,179.010,180.085
0.087,8.589,6.002,6.002,180.698,178.988,180.070
0.089,8.611,6.012,6.012,180.694,178.971,180.056
0.090,8.629,6.020,6.020,180.691,178.957,180.045
0.091,8.642,6.026,6.026,180.688,178.947,180.037
0.093,8.650,6.030,6.030,180.686,178.942,180.032
0.094,8.655,6.033,6.033,180.683,178.939,180.029
0.095,8.657,6.034,6.034,180.682,178.939,180.028
0.097,8.658,6.035,6.035,180.681,178.939,180.028
0.098,8.659,6.035,6.035,180.680,178.940,180.029
0.099,8.661,6.035,6.035,180.681,178.940,180.030
0.101,8.664,6.036,6.036,180.682,178.937,180.032
0.102,8.669,6.037,6.037,180.683,178.932,180.032
0.103,8.679,6.038,6.038,180.686,178.923,180.032
0.104,8.693,6.041,6.041,180.690,178.909,180.030
0.106,8.714,6.044,6.044,180.694,178.889,180.026
0.107,8.742,6.049,6.049,180.700,178.863,180.020
0.108,8.776,6.055,6.055,180.707,178.830,180.012
0.110,8.815,6.062,6.062,180.714,178.793,180.001
0.111,8.858,6.071,6.071,180.721,178.752,179.990
0.112,8.904,6.081,6.081,180.729,178.709,179.977
0.114,8.951,6.092,6.092,180.737,178.665,179.964
0.115,8.997,6.104,6.104,180.744,178.621,179.950
0.116,9.042,6.116,6.116,180.751,178.579,179.937
0.118,9.084,6.128,6.128,180.757,178.540,179.924
0.119,9.121,6.138,6.138,180.762,178.504,179.913
0.120,9.153,6.148,6.148,180.766,178.474,179.903
0.122,9.178,6.155,6.155,180.769,178.451,179.895
0.123,9.196,6.161,6.161,180.770,178.434,179.889
0.124,9.207,6.164,6.164,180.770,178.424,179.885
0.126,9.213,6.166,6.166,180.769,178.418,179.883
0.127,9.215,6.166,6.166,180.768,178.417,179.882
0.128,9.217,6.165,6.165,180.766,178.419,179.882
0.130,9.222,6.163,6.163,180.765,178.424,179.883
0.131,9.228,6.160,6.160,180.764,178.429,179.886
0.132,9.234,6.156,6.156,180.764,178.435,179.888
0.134,9.241,6.152,6.152,180.765,178.440,179.891
0.135,9.246,6.147,6.147,180.768,178.444,179.895
0.136,9.252,6.143,6.143,180.773,178.445,179.898
0.138,9.260,6.139,6.139,180.779,178.443,179.901
0.139,9.270,6.136,6.136,180.788,178.438,179.903
0.140,9.283,6.134,6.134,180.797,178.429,179.906
0.142,9.299,6.133,6.133,180.808,178.418,179.907
0.143,9.317,6.133,6.133,180.819,178.403,179.908
0.144,9.338,6.135,6.135,180.830,178.386,179.909
0.146,9.360,6.138,6.138,180.840,178.366,179.908
0.147,9.384,6.141,6.141,180.849,178.344,179.907
0.148,9.409,6.144,6.144,180.857,178.321,179.904
0.149,9.436,6.147,6.147,180.863,178.295,179.901
0.151,9.464,6.149,6.149,180.867,178.267,179.897
0.152,9.493,6.151,6.151,180.868,178.238,179.891
0.153,9.524,6.151,6.151,180.866,178.208,179.884
0.155,9.556,6.150,6.150,180.861,178.177,179.877
0.156,9.589,6.148,6.148,180.855,178.146,179.869
0.157,9.622,6.147,6.147,180.848,178.115,179.861
0.159,9.654,6.145,6.145,180.839,178.085,179.853
0.160,9.685,6.144,6.144,180.831,178.057,179.845
0.161,9.714,6.144,6.144,180.823,178.030,179.838
0.163,9.740,6.144,6.144,180.816,178.005,179.832
0.164,9.763,6.146,6.146,180.810,177.983,179.828
0.165,9.782,6.147,6.147,180.806,177.964,179.825
0.167,9.797,6.148,6.148,180.804,177.950,179.825
0.168,9.809,6.147,6.147,180.805,177.938,179.826
0.169,9.819,6.145,6.145,180.809,177.928,179.827
0.171,9.832,6.140,6.140,180.813,177.917,179.826
0.172,9.849,6.133,6.133,180.818,177.901,179.822
0.173,9.876,6.121,6.121,180.823,177.877,179.811
0.175,9.915,6.106,6.106,180.827,177.843,179.791
0.176,9.971,6.086,6.086,180.829,177.796,179.761
0.177,10.048,6.061,6.061,180.829,177.732,179.719
0.179,10.149,6.031,6.031,180.825,177.649,179.662
0.180,10.278,5.995,5.995,180.817,177.544,179.588
0.181,10.439,5.953,5.953,180.803,177.413,179.494
0.183,10.635,5.904,5.904,180.784,177.255,179.380
0.184,10.864,5.850,5.850,180.760,177.071,179.246
0.185,11.121,5.794,5.794,180.730,176.865,179.096
0.187,11.398,5.738,5.738,180.697,176.642,178.933
0.188,11.690,5.686,5.686,180.661,176.409,178.761
0.189,11.990,5.640,5.640,180.624,176.170,178.584
0.190,12.292,5.602,5.602,180.585,175.930,178.405
0.192,12.588,5.577,5.577,180.547,175.695,178.229
0.193,12.873,5.566,5.566,180.510,175.470,178.059
0.194,13.140,5.567,5.567,180.475,175.259,177.899
0.196,13.383,5.578,5.578,180.443,175.068,177.752
0.197,13.594,5.595,5.595,180.415,174.903,177.622
0.198,13.772,5.617,5.617,180.392,174.766,177.513
0.200,13.917,5.641,5.641,180.373,174.654,177.421
0.201,14.037,5.662,5.662,180.359,174.564,177.344
0.202,14.135,5.680,5.680,180.348,174.491,177.279
0.204,14.216,5.692,5.692,180.340,174.432,177.225
0.205,14.286,5.700,5.700,180.335,174.381,177.177
0.206,14.348,5.705,5.705,180.332,174.335,177.134
0.208,14.409,5.708,5.708,180.331,174.290,177.093
0.209,14.473,5.712,5.712,180.332,174.242,177.051
0.210,14.545,5.717,5.717,180.333,174.187,177.006
0.212,14.629,5.724,5.724,180.335,174.120,176.954
0.213,14.731,5.736,5.736,180.337,174.037,176.894
0.214,14.850,5.753,5.753,180.339,173.940,176.826
0.216,14.984,5.774,5.774,180.342,173.829,176.751
0.217,15.128,5.799,5.799,180.346,173.709,176.672
0.218,15.280,5.828,5.828,180.352,173.580,176.591
0.220,15.436,5.860,5.860,180.359,173.447,176.510
0.221,15.593,5.896,5.896,180.368,173.311,176.432
0.222,15.748,5.935,5.935,180.380,173.176,176.358
0.224,15.898,5.977,5.977,180.395,173.043,176.290
0.225,16.040,6.019,6.019,180.413,172.915,176.232
0.226,16.171,6.062,6.062,180.435,172.795,176.184
0.228,16.288,6.104,6.104,180.461,172.686,176.149
0.229,16.392,6.142,6.142,180.491,172.588,176.128
0.230,16.484,6.177,6.177,180.525,172.503,176.120
0.231,16.566,6.206,6.206,180.560,172.430,176.123
0.233,16.640,6.227,6.227,180.597,172.367,176.135
0.234,16.706,6.242,6.242,180.634,172.315,176.155
0.235,16.768,6.249,6.249,180.671,172.273,176.181
0.237,16.823,6.251,6.251,180.705,172.241,176.211
0.238,16.874,6.249,6.249,180.736,172.219,176.243
0.239,16.920,6.243,6.243,180.764,172.205,176.277
0.241,16.960,6.235,6.235,180.786,172.199,176.310
0.242,16.994,6.225,6.225,180.803,172.201,176.340
0.243,17.023,6.214,6.214,180.813,172.210,176.366
0.245,17.049,6.204,6.204,180.816,172.225,176.387
0.246,17.074,6.195,6.195,180.814,172.243,176.403
0.247,17.097,6.188,6.188,180.809,172.263,176.415
0.249,17.118,6.183,6.183,180.802,172.281,176.422
0.250,17.135,6.181,6.182,180.794,172.295,176.425
0.251,17.146,6.184,6.184,180.787,172.304,176.423
0.253,17.155,6.191,6.191,180.782,172.305,176.416
0.254,17.170,6.203,6.203,180.781,172.296,176.404
0.255,17.197,6.219,6.219,180.785,172.274,176.388
0.257,17.241,6.237,6.237,180.795,172.238,176.366
0.258,17.303,6.258,6.258,180.813,172.184,176.341
0.259,17.384,6.278,6.278,180.840,172.113,176.310
0.261,17.483,6.297,6.297,180.873,172.027,176.276
0.262,17.596,6.314,6.314,180.912,171.928,176.239
0.263,17.720,6.327,6.327,180.956,171.818,176.199
0.265,17.853,6.337,6.337,181.004,171.702,176.158
0.266,17.990,6.342,6.343,181.053,171.580,176.116
0.267,18.130,6.345,6.345,181.102,171.457,176.074
0.269,18.269,6.345,6.345,181.151,171.334,176.032
0.270,18.404,6.342,6.343,181.198,171.214,175.992
0.271,18.532,6.338,6.339,181.242,171.100,175.953
0.272,18.650,6.333,6.333,181.281,170.994,175.918
0.274,18.756,6.327,6.327,181.314,170.899,175.886
0.275,18.849,6.320,6.320,181.341,170.815,175.857
0.276,18.930,6.314,6.313,181.363,170.741,175.832
0.278,19.000,6.308,6.307,181.380,170.676,175.810
0.279,19.060,6.303,6.302,181.393,170.621,175.792
0.280,19.110,6.300,6.300,181.402,170.574,175.778
0.282,19.151,6.299,6.299,181.407,170.534,175.767
0.283,19.185,6.301,6.301,181.410,170.501,175.759
0.284,19.212,6.306,6.307,181.410,170.475,175.754
0.286,19.233,6.313,6.315,181.408,170.454,175.753
0.287,19.249,6.322,6.325,181.405,170.438,175.755
0.288,19.263,6.332,6.336,181.401,170.426,175.761
0.290,19.276,6.342,6.347,181.396,170.418,175.769
0.291,19.288,6.352,6.358,181.392,170.410,175.778
0.292,19.301,6.362,6.367,181.390,170.402,175.788
0.294,19.315,6.370,6.375,181.389,170.392,175.798
0.295,19.331,6.376,6.381,181.392,170.378,175.805
0.296,19.353,6.380,6.384,181.399,170.357,175.809
0.298,19.384,6.381,6.384,181.410,170.329,175.809
0.299,19.425,6.380,6.381,181.427,170.292,175.803
0.300,19.481,6.374,6.375,181.451,170.242,175.790
0.302,19.554,6.366,6.366,181.482,170.180,175.770
0.303,19.645,6.353,6.352,181.520,170.103,175.740
0.304,19.758,6.335,6.336,181.568,170.009,175.701
0.306,19.889,6.314,6.316,181.624,169.900,175.652
0.307,20.035,6.290,6.293,181.686,169.780,175.597
0.308,20.194,6.263,6.270,181.755,169.650,175.536
0.310,20.362,6.236,6.247,181.828,169.514,175.472
0.311,20.535,6.208,6.225,181.904,169.374,175.405
0.312,20.710,6.180,6.204,181.983,169.232,175.339
0.313,20.885,6.154,6.186,182.064,169.092,175.274
0.315,21.054,6.130,6.172,182.144,168.955,175.212
0.316,21.217,6.108,6.161,182.224,168.825,175.155
0.317,21.368,6.090,6.153,182.301,168.705,175.105
0.319,21.506,6.074,6.148,182.375,168.596,175.064
0.320,21.630,6.062,6.145,182.446,168.501,175.031
0.321,21.740,6.054,6.144,182.512,168.416,175.007
0.323,21.839,6.051,6.146,182.575,168.341,174.989
0.324,21.928,6.052,6.149,182.633,168.275,174.977
0.325,22.008,6.058,6.154,182.687,168.217,174.970
0.327,22.082,6.067,6.160,182.738,168.163,174.967
0.328,22.149,6.078,6.166,182.783,168.114,174.966
0.329,22.211,6.091,6.173,182.825,168.068,174.967
0.331,22.269,6.105,6.180,182.862,168.023,174.969
0.332,22.324,6.119,6.186,182.895,167.979,174.971
0.333,22.379,6.131,6.191,182.923,167.933,174.971
0.335,22.433,6.141,6.195,182.947,167.884,174.969
0.336,22.487,6.148,6.197,182.966,167.833,174.964
0.337,22.542,6.151,6.196,182.980,167.781,174.956
0.339,22.598,6.149,6.193,182.988,167.727,174.945
0.340,22.654,6.142,6.187,182.991,167.672,174.931
0.341,22.712,6.128,6.177,182.988,167.617,174.914
0.343,22.771,6.107,6.163,182.979,167.563,174.893
0.344,22.832,6.079,6.144,182.964,167.509,174.868
0.345,22.896,6.042,6.120,182.942,167.456,174.839
0.347,22.963,6.000,6.093,182.913,167.406,174.806
0.348,23.034,5.954,6.062,182.878,167.357,174.769
0.349,23.109,5.907,6.029,182.835,167.312,174.726
0.351,23.190,5.860,5.995,182.785,167.268,174.680
0.352,23.276,5.815,5.961,182.730,167.223,174.631
0.353,23.369,5.775,5.927,182.671,167.174,174.580
0.354,23.466,5.741,5.894,182.609,167.119,174.528
0.356,23.570,5.713,5.862,182.545,167.054,174.478
0.357,23.682,5.689,5.829,182.481,166.978,174.428
0.358,23.802,5.667,5.795,182.418,166.886,174.382
0.360,23.933,5.645,5.758,182.357,166.777,174.340
0.361,24.079,5.621,5.717,182.300,166.648,174.304
0.362,24.242,5.594,5.672,182.248,166.497,174.274
0.364,24.427,5.562,5.620,182.202,166.319,174.252
0.365,24.635,5.523,5.562,182.163,166.115,174.238
0.366,24.863,5.479,5.500,182.131,165.890,174.232
0.368,25.105,5.431,5.436,182.105,165.649,174.232
0.369,25.357,5.380,5.373,182.085,165.398,174.239
0.370,25.611,5.327,5.314,182.070,165.145,174.250
0.372,25.863,5.275,5.261,182.061,164.893,174.265
0.373,26.106,5.223,5.216,182.056,164.651,174.283
0.374,26.334,5.175,5.183,182.055,164.423,174.302
0.376,26.542,5.130,5.161,182.057,164.216,174.323
0.377,26.724,5.089,5.148,182.063,164.036,174.343
0.378,26.873,5.052,5.141,182.071,163.889,174.362
0.380,26.983,5.019,5.138,182.082,163.780,174.380
0.381,27.059,4.991,5.135,182.094,163.707,174.394
0.382,27.108,4.968,5.129,182.107,163.661,174.404
0.384,27.138,4.950,5.119,182.120,163.634,174.409
0.385,27.159,4.937,5.102,182.132,163.617,174.408
0.386,27.178,4.928,5.078,182.143,163.603,174.400
0.388,27.205,4.922,5.048,182.152,163.583,174.385
0.389,27.248,4.916,5.015,182.157,163.548,174.360
0.390,27.316,4.911,4.979,182.159,163.490,174.326
0.392,27.415,4.903,4.942,182.157,163.401,174.281
0.393,27.556,4.891,4.906,182.149,163.272,174.225
0.394,27.747,4.875,4.872,182.135,163.095,174.156
0.396,27.990,4.852,4.842,182.114,162.866,174.074
0.397,28.278,4.826,4.816,182.088,162.595,173.982
0.398,28.599,4.799,4.795,182.058,162.291,173.883
0.399,28.943,4.772,4.779,182.024,161.965,173.779
0.401,29.300,4.748,4.771,181.987,161.626,173.673
0.402,29.659,4.730,4.770,181.949,161.286,173.567
0.403,30.009,4.719,4.778,181.909,160.953,173.464
0.405,30.340,4.718,4.794,181.870,160.639,173.367
0.406,30.641,4.728,4.818,181.833,160.353,173.279
0.407,30.902,4.744,4.849,181.797,160.106,173.202
0.409,31.112,4.767,4.882,181.764,159.909,173.139
0.410,31.263,4.794,4.916,181.736,159.769,173.092
0.411,31.356,4.822,4.948,181.712,159.684,173.061
0.413,31.404,4.851,4.976,181.692,159.645,173.043
0.414,31.421,4.877,4.997,181.678,159.641,173.036
0.415,31.446,4.899,5.009,181.668,159.665,173.037
0.417,31.487,4.917,5.013,181.663,159.705,173.043
0.418,31.536,4.930,5.011,181.664,159.753,173.054
0.419,31.584,4.940,5.003,181.670,159.800,173.065
0.421,31.623,4.946,4.992,181.682,159.835,173.075
0.422,31.646,4.949,4.979,181.700,159.849,173.081
0.423,31.675,4.947,4.966,181.724,159.832,173.081
0.425,31.739,4.943,4.953,181.754,159.776,173.072
0.426,31.847,4.935,4.942,181.790,159.677,173.053
0.427,31.991,4.925,4.933,181.832,159.541,173.027
0.429,32.163,4.913,4.924,181.877,159.378,172.994
0.430,32.356,4.899,4.916,181.925,159.195,172.957
0.431,32.560,4.885,4.909,181.976,159.001,172.918
0.433,32.768,4.871,4.901,182.028,158.804,172.878
0.434,32.970,4.858,4.892,182.080,158.613,172.840
0.435,33.158,4.846,4.881,182.132,158.435,172.805
0.437,33.324,4.835,4.870,182.182,158.280,172.775
0.438,33.460,4.826,4.858,182.229,158.155,172.753
0.439,33.558,4.819,4.846,182.273,158.068,172.739
0.440,33.615,4.813,4.835,182.312,158.027,172.736
0.442,33.649,4.810,4.825,182.346,158.026,172.742
0.443,33.691,4.809,4.816,182.374,158.054,172.754
0.444,33.744,4.810,4.810,182.396,158.100,172.770
0.446,33.803,4.813,4.806,182.411,158.154,172.786
0.447,33.856,4.819,4.807,182.418,158.206,172.800
0.448,33.895,4.827,4.811,182.417,158.243,172.810
0.450,33.912,4.839,4.820,182.408,158.257,172.811
0.451,33.942,4.853,4.836,182.389,158.236,172.803
0.452,34.018,4.871,4.857,182.360,158.170,172.781
0.454,34.152,4.893,4.886,182.320,158.047,172.743
0.455,34.356,4.918,4.923,182.269,157.858,172.686
0.456,34.631,4.948,4.968,182.208,157.601,172.610
0.458,34.965,4.983,5.020,182.139,157.287,172.519
0.459,35.345,5.025,5.081,182.063,156.929,172.415
0.460,35.759,5.076,5.148,181.984,156.539,172.303
0.462,36.193,5.136,5.221,181.904,156.129,172.186
0.463,36.634,5.206,5.301,181.825,155.712,172.067
0.464,37.069,5.289,5.387,181.749,155.300,171.950
0.466,37.484,5.384,5.478,181.678,154.905,171.839
0.467,37.868,5.490,5.573,181.616,154.541,171.736
0.468,38.207,5.600,5.667,181.564,154.218,171.647
0.470,38.487,5.709,5.759,181.525,153.951,171.573
0.471,38.699,5.813,5.845,181.500,153.747,171.518
0.472,38.848,5.907,5.923,181.488,153.604,171.481
0.474,38.942,5.984,5.989,181.486,153.513,171.458
0.475,38.991,6.041,6.041,181.492,153.465,171.447
0.476,39.007,6.074,6.077,181.502,153.453,171.444
0.478,39.026,6.086,6.099,181.514,153.468,171.447
0.479,39.061,6.084,6.111,181.525,153.501,171.453
0.480,39.106,6.071,6.116,181.533,153.544,171.459
0.481,39.150,6.053,6.116,181.534,153.589,171.462
0.483,39.189,6.034,6.115,181.527,153.626,171.459
0.484,39.221,6.021,6.115,181.508,153.649,171.448
0.485,39.262,6.017,6.121,181.474,153.649,171.425
0.487,39.327,6.025,6.133,181.426,153.622,171.390
0.488,39.416,6.041,6.149,181.366,153.573,171.344
0.489,39.527,6.064,6.168,181.297,153.507,171.291
0.491,39.652,6.090,6.188,181.221,153.426,171.232
0.492,39.789,6.117,6.209,181.141,153.335,171.169
0.493,39.931,6.142,6.228,181.059,153.238,171.104
0.495,40.074,6.164,6.244,180.978,153.140,171.040
0.496,40.211,6.178,6.255,180.901,153.044,170.979
0.497,40.339,6.187,6.263,180.830,152.954,170.922
0.499,40.451,6.190,6.267,180.768,152.874,170.873
0.500,40.543,6.191,6.269,180.718,152.810,170.832
0.501,40.610,6.190,6.268,180.682,152.762,170.802
0.503,40.655,6.188,6.266,180.657,152.731,170.782
0.504,40.682,6.188,6.264,180.642,152.711,170.770
0.505,40.695,6.191,6.262,180.635,152.701,170.765
0.507,40.698,6.197,6.261,180.634,152.698,170.765
0.508,40.704,6.205,6.260,180.637,152.698,170.770
0.509,40.712,6.215,6.260,180.641,152.698,170.777
0.511,40.722,6.226,6.259,180.645,152.696,170.786
0.512,40.734,6.237,6.259,180.646,152.688,170.795
0.513,40.753,6.246,6.258,180.643,152.671,170.803
0.515,40.784,6.253,6.256,180.632,152.642,170.808
0.516,40.832,6.256,6.253,180.612,152.599,170.808
0.517,40.898,6.256,6.249,180.583,152.540,170.805
0.519,40.981,6.255,6.247,180.544,152.467,170.797
0.520,41.080,6.254,6.246,180.496,152.382,170.786
0.521,41.192,6.255,6.248,180.438,152.286,170.773
0.522,41.318,6.260,6.255,180.371,152.181,170.758
0.524,41.455,6.269,6.267,180.294,152.068,170.741
0.525,41.602,6.286,6.285,180.209,151.949,170.724
0.526,41.758,6.310,6.311,180.115,151.826,170.707
0.528,41.922,6.341,6.344,180.013,151.700,170.691
0.529,42.091,6.378,6.382,179.902,151.572,170.675
0.530,42.267,6.418,6.424,179.783,151.444,170.662
0.532,42.446,6.459,6.468,179.656,151.319,170.651
0.533,42.626,6.501,6.513,179.523,151.196,170.642
0.534,42.807,6.541,6.558,179.387,151.078,170.634
0.536,42.984,6.577,6.601,179.249,150.967,170.627
0.537,43.156,6.609,6.641,179.112,150.863,170.620
0.538,43.320,6.635,6.679,178.978,150.769,170.613
0.540,43.473,6.655,6.713,178.849,150.686,170.605
