"T","Distance","Radius","FreeRadius","X","Y","Z"
0.000,0.000,3.283,3.283,32.693,29.092,60.104
0.001,0.064,3.287,3.287,32.714,29.033,60.119
0.003,0.127,3.292,3.292,32.735,28.975,60.133
0.004,0.190,3.298,3.298,32.757,28.917,60.146
0.005,0.253,3.305,3.305,32.781,28.861,60.158
0.007,0.315,3.314,3.314,32.808,28.805,60.168
0.008,0.377,3.326,3.326,32.837,28.751,60.175
0.009,0.439,3.341,3.341,32.869,28.699,60.180
0.011,0.501,3.359,3.359,32.906,28.649,60.181
0.012,0.563,3.380,3.380,32.947,28.602,60.178
0.013,0.628,3.405,3.405,32.994,28.557,60.171
0.015,0.696,3.430,3.430,33.046,28.515,60.159
0.016,0.768,3.457,3.457,33.105,28.477,60.141
0.017,0.846,3.482,3.482,33.170,28.443,60.118
0.018,0.929,3.507,3.507,33.242,28.411,60.089
0.020,1.018,3.529,3.529,33.319,28.383,60.056
0.021,1.112,3.548,3.548,33.401,28.356,60.019
0.022,1.209,3.564,3.564,33.485,28.330,59.978
0.024,1.308,3.578,3.578,33.571,28.305,59.936
0.025,1.409,3.593,3.593,33.658,28.279,59.892
0.026,1.510,3.608,3.608,33.745,28.252,59.847
0.028,1.610,3.626,3.626,33.830,28.223,59.803
0.029,1.708,3.647,3.647,33.912,28.191,59.760
0.030,1.803,3.674,3.674,33.990,28.155,59.720
0.032,1.894,3.706,3.706,34.063,28.115,59.682
0.033,1.982,3.742,3.742,34.129,28.070,59.647
0.034,2.065,3.781,3.781,34.189,28.020,59.617
0.036,2.146,3.821,3.821,34.242,27.965,59.591
0.037,2.223,3.860,3.860,34.289,27.908,59.569
0.038,2.298,3.896,3.896,34.332,27.850,59.549
0.040,2.370,3.928,3.928,34.370,27.792,59.531
0.041,2.437,3.953,3.953,34.406,27.737,59.515
0.042,2.500,3.972,3.972,34.438,27.685,59.501
0.044,2.558,3.986,3.986,34.469,27.638,59.488
0.045,2.610,3.994,3.994,34.499,27.597,59.475
0.046,2.656,3.999,3.999,34.529,27.565,59.461
0.047,2.697,4.002,4.002,34.559,27.542,59.448
0.049,2.734,4.004,4.004,34.591,27.530,59.433
0.050,2.771,4.005,4.005,34.625,27.531,59.416
0.051,2.812,4.007,4.007,34.660,27.542,59.398
0.053,2.857,4.011,4.011,34.695,27.561,59.379
0.054,2.902,4.014,4.014,34.729,27.584,59.360
0.055,2.947,4.017,4.017,34.761,27.609,59.340
0.057,2.987,4.019,4.019,34.788,27.631,59.321
0.058,3.021,4.019,4.019,34.811,27.649,59.303
0.059,3.047,4.017,4.017,34.826,27.659,59.285
0.061,3.064,4.012,4.012,34.834,27.658,59.270
0.062,3.085,4.004,4.004,34.833,27.642,59.256
0.063,3.122,3.994,3.994,34.821,27.609,59.246
0.065,3.181,3.983,3.983,34.797,27.555,59.238
0.066,3.267,3.973,3.973,34.760,27.478,59.233
0.067,3.381,3.964,3.964,34.710,27.376,59.232
0.069,3.518,3.959,3.959,34.650,27.253,59.232
0.070,3.675,3.958,3.958,34.581,27.112,59.232
0.071,3.846,3.963,3.963,34.508,26.956,59.231
0.073,4.029,3.974,3.974,34.432,26.790,59.226
0.074,4.218,3.989,3.989,34.357,26.617,59.216
0.075,4.409,4.007,4.007,34.285,26.441,59.199
0.077,4.599,4.025,4.025,34.220,26.264,59.174
0.078,4.785,4.042,4.042,34.163,26.091,59.139
0.079,4.963,4.057,4.057,34.117,25.925,59.092
0.080,5.132,4.067,4.067,34.086,25.770,59.032
0.082,5.292,4.071,4.071,34.072,25.630,58.956
0.083,5.446,4.070,4.070,34.077,25.506,58.865
0.084,5.599,4.066,4.066,34.100,25.400,58.758
0.086,5.753,4.060,4.060,34.137,25.308,58.640
0.087,5.910,4.055,4.055,34.186,25.231,58.512
0.088,6.071,4.052,4.052,34.243,25.165,58.377
0.090,6.233,4.053,4.053,34.306,25.109,58.238
0.091,6.395,4.060,4.060,34.371,25.062,58.098
0.092,6.554,4.074,4.074,34.436,25.022,57.958
0.094,6.706,4.093,4.093,34.497,24.988,57.823
0.095,6.850,4.116,4.116,34.551,24.957,57.693
0.096,6.982,4.140,4.140,34.596,24.928,57.572
0.098,7.100,4.165,4.164,34.628,24.899,57.463
0.099,7.201,4.186,4.186,34.644,24.869,57.368
0.100,7.288,4.204,4.204,34.643,24.837,57.287
0.102,7.366,4.215,4.215,34.627,24.803,57.218
0.103,7.443,4.219,4.219,34.596,24.768,57.158
0.104,7.522,4.215,4.215,34.552,24.730,57.104
0.106,7.607,4.205,4.205,34.495,24.692,57.054
0.107,7.699,4.187,4.187,34.428,24.651,57.005
0.108,7.800,4.162,4.162,34.351,24.610,56.955
0.109,7.910,4.131,4.131,34.265,24.568,56.900
0.111,8.030,4.092,4.092,34.172,24.525,56.839
0.112,8.159,4.047,4.047,34.072,24.481,56.768
0.113,8.300,3.997,3.997,33.968,24.437,56.685
0.115,8.453,3.945,3.945,33.859,24.393,56.587
0.116,8.618,3.893,3.893,33.748,24.348,56.473
0.117,8.796,3.844,3.844,33.635,24.303,56.343
0.119,8.985,3.800,3.800,33.520,24.258,56.200
0.120,9.183,3.763,3.763,33.404,24.214,56.046
0.121,9.388,3.737,3.737,33.288,24.169,55.884
0.123,9.598,3.722,3.722,33.172,24.125,55.714
0.124,9.811,3.717,3.717,33.056,24.080,55.540
0.125,10.027,3.720,3.720,32.942,24.036,55.363
0.127,10.241,3.728,3.729,32.829,23.993,55.186
0.128,10.453,3.739,3.740,32.718,23.950,55.011
0.129,10.660,3.752,3.752,32.610,23.907,54.840
0.131,10.860,3.763,3.764,32.506,23.864,54.674
0.132,11.051,3.772,3.771,32.405,23.823,54.517
0.133,11.233,3.777,3.776,32.309,23.780,54.368
0.135,11.407,3.780,3.778,32.218,23.734,54.228
0.136,11.573,3.783,3.781,32.132,23.682,54.095
0.137,11.733,3.788,3.785,32.053,23.623,53.970
0.139,11.889,3.797,3.794,31.980,23.552,53.851
0.140,12.044,3.811,3.809,31.915,23.469,53.738
0.141,12.200,3.833,3.833,31.857,23.370,53.632
0.142,12.363,3.864,3.866,31.807,23.254,53.530
0.144,12.535,3.904,3.909,31.767,23.117,53.433
0.145,12.722,3.953,3.961,31.735,22.957,53.341
0.146,12.928,4.012,4.022,31.714,22.773,53.253
0.148,13.157,4.080,4.090,31.704,22.560,53.168
0.149,13.410,4.157,4.166,31.704,22.320,53.086
0.150,13.685,4.243,4.248,31.714,22.057,53.007
0.152,13.977,4.338,4.336,31.733,21.775,52.933
0.153,14.281,4.441,4.429,31.760,21.481,52.864
0.154,14.591,4.548,4.526,31.795,21.180,52.800
0.156,14.903,4.656,4.624,31.836,20.876,52.743
0.157,15.211,4.760,4.722,31.882,20.576,52.692
0.158,15.510,4.858,4.819,31.933,20.284,52.648
0.160,15.795,4.944,4.913,31.987,20.007,52.612
0.161,16.061,5.016,5.003,32.044,19.748,52.585
0.162,16.302,5.070,5.086,32.103,19.515,52.567
0.164,16.515,5.104,5.162,32.163,19.311,52.558
0.165,16.694,5.124,5.230,32.223,19.142,52.560
0.166,16.842,5.132,5.288,32.282,19.007,52.571
0.168,16.964,5.133,5.336,32.340,18.901,52.591
0.169,17.067,5.129,5.374,32.396,18.820,52.619
0.170,17.156,5.125,5.399,32.451,18.759,52.653
0.172,17.235,5.124,5.411,32.503,18.715,52.693
0.173,17.308,5.130,5.410,32.553,18.682,52.737
0.174,17.379,5.141,5.397,32.599,18.657,52.784
0.175,17.448,5.158,5.376,32.641,18.636,52.833
0.177,17.515,5.178,5.351,32.679,18.613,52.884
0.178,17.582,5.200,5.323,32.713,18.585,52.935
0.179,17.651,5.224,5.297,32.741,18.547,52.985
0.181,17.725,5.246,5.275,32.764,18.495,53.033
0.182,17.809,5.267,5.262,32.781,18.427,53.078
0.183,17.903,5.286,5.258,32.793,18.344,53.121
0.185,18.006,5.303,5.264,32.800,18.249,53.162
0.186,18.118,5.320,5.279,32.803,18.144,53.199
0.187,18.238,5.339,5.302,32.801,18.030,53.235
0.189,18.363,5.361,5.333,32.795,17.909,53.268
0.190,18.493,5.388,5.371,32.786,17.784,53.300
0.191,18.624,5.420,5.415,32.774,17.656,53.329
0.193,18.757,5.460,5.465,32.759,17.527,53.356
0.194,18.888,5.506,5.519,32.742,17.400,53.382
0.195,19.015,5.557,5.576,32.723,17.276,53.405
0.197,19.138,5.611,5.635,32.702,17.157,53.427
0.198,19.253,5.666,5.693,32.681,17.045,53.448
0.199,19.362,5.720,5.749,32.658,16.941,53.467
0.201,19.463,5.771,5.801,32.635,16.844,53.484
0.202,19.556,5.818,5.848,32.612,16.755,53.500
0.203,19.642,5.857,5.888,32.589,16.674,53.516
0.204,19.721,5.890,5.922,32.568,16.600,53.530
0.206,19.792,5.916,5.950,32.547,16.533,53.543
0.207,19.855,5.937,5.971,32.527,16.475,53.556
0.208,19.910,5.953,5.988,32.510,16.424,53.568
0.210,19.957,5.963,6.000,32.495,16.381,53.579
0.211,19.996,5.970,6.008,32.482,16.345,53.590
0.212,20.027,5.972,6.012,32.473,16.318,53.600
0.214,20.050,5.971,6.013,32.467,16.298,53.611
0.215,20.066,5.967,6.012,32.464,16.285,53.621
0.216,20.078,5.962,6.009,32.465,16.279,53.630
0.218,20.087,5.956,6.007,32.467,16.276,53.638
0.219,20.094,5.949,6.006,32.471,16.276,53.644
0.220,20.101,5.943,6.006,32.477,16.278,53.648
0.222,20.108,5.938,6.009,32.484,16.279,53.650
0.223,20.115,5.934,6.016,32.490,16.279,53.648
0.224,20.124,5.933,6.027,32.497,16.276,53.643
0.226,20.137,5.932,6.038,32.502,16.268,53.633
0.227,20.157,5.931,6.050,32.506,16.254,53.619
0.228,20.186,5.929,6.060,32.509,16.232,53.601
0.230,20.225,5.924,6.065,32.509,16.201,53.576
0.231,20.276,5.917,6.066,32.506,16.161,53.546
0.232,20.336,5.905,6.058,32.500,16.111,53.512
0.234,20.405,5.888,6.043,32.493,16.055,53.473
0.235,20.481,5.866,6.019,32.484,15.992,53.431
0.236,20.561,5.842,5.990,32.473,15.926,53.387
0.237,20.645,5.816,5.956,32.462,15.857,53.342
0.239,20.729,5.788,5.920,32.450,15.787,53.296
0.240,20.812,5.762,5.882,32.438,15.718,53.252
0.241,20.892,5.737,5.845,32.426,15.651,53.209
0.243,20.968,5.715,5.811,32.415,15.588,53.168
0.244,21.037,5.696,5.780,32.405,15.531,53.131
0.245,21.098,5.681,5.752,32.397,15.480,53.099
0.247,21.149,5.669,5.728,32.390,15.438,53.071
0.248,21.189,5.660,5.708,32.385,15.404,53.050
0.249,21.219,5.653,5.692,32.381,15.379,53.033
0.251,21.241,5.648,5.680,32.379,15.361,53.021
0.252,21.254,5.646,5.672,32.378,15.350,53.013
0.253,21.260,5.645,5.667,32.378,15.346,53.010
0.255,21.261,5.645,5.667,32.378,15.347,53.010
0.256,21.268,5.647,5.670,32.379,15.353,53.013
0.257,21.280,5.649,5.676,32.380,15.363,53.018
0.259,21.296,5.652,5.684,32.380,15.377,53.026
0.260,21.316,5.655,5.696,32.380,15.394,53.037
0.261,21.338,5.659,5.709,32.379,15.413,53.048
0.263,21.363,5.662,5.724,32.378,15.435,53.061
0.264,21.389,5.664,5.740,32.375,15.457,53.074
0.265,21.414,5.666,5.756,32.370,15.477,53.087
0.266,21.435,5.666,5.770,32.365,15.495,53.098
0.268,21.451,5.663,5.780,32.357,15.507,53.105
0.269,21.461,5.658,5.784,32.349,15.511,53.107
0.270,21.473,5.649,5.782,32.338,15.506,53.103
0.272,21.497,5.637,5.770,32.326,15.489,53.091
0.273,21.537,5.619,5.748,32.311,15.458,53.070
0.274,21.595,5.597,5.714,32.295,15.411,53.040
0.276,21.675,5.570,5.671,32.277,15.346,52.997
0.277,21.779,5.537,5.619,32.256,15.261,52.941
0.278,21.909,5.499,5.560,32.233,15.154,52.871
0.280,22.068,5.455,5.497,32.208,15.023,52.786
0.281,22.252,5.406,5.430,32.181,14.870,52.686
0.282,22.455,5.350,5.362,32.153,14.701,52.577
0.284,22.672,5.289,5.293,32.124,14.520,52.460
0.285,22.897,5.223,5.226,32.096,14.333,52.339
0.286,23.123,5.155,5.161,32.070,14.144,52.218
0.288,23.346,5.088,5.099,32.045,13.958,52.099
0.289,23.558,5.023,5.042,32.023,13.779,51.985
0.290,23.755,4.964,4.990,32.005,13.613,51.881
0.292,23.930,4.913,4.945,31.992,13.465,51.789
0.293,24.078,4.872,4.907,31.984,13.339,51.713
0.294,24.192,4.843,4.878,31.982,13.240,51.655
0.296,24.269,4.825,4.856,31.986,13.173,51.619
0.297,24.307,4.816,4.841,31.997,13.138,51.605
0.298,24.326,4.813,4.831,32.013,13.130,51.609
0.299,24.353,4.814,4.825,32.031,13.142,51.626
0.301,24.393,4.816,4.821,32.050,13.167,51.651
0.302,24.439,4.819,4.820,32.067,13.199,51.679
0.303,24.483,4.819,4.819,32.080,13.231,51.706
0.305,24.517,4.815,4.818,32.088,13.257,51.727
0.306,24.532,4.806,4.815,32.087,13.269,51.736
0.307,24.547,4.794,4.811,32.077,13.262,51.730
0.309,24.595,4.777,4.804,32.054,13.228,51.703
0.310,24.688,4.757,4.795,32.017,13.162,51.650
0.311,24.832,4.732,4.781,31.964,13.056,51.567
0.313,25.035,4.703,4.764,31.893,12.906,51.450
0.314,25.292,4.671,4.741,31.805,12.716,51.303
0.315,25.592,4.636,4.715,31.704,12.492,51.130
0.317,25.927,4.602,4.688,31.591,12.242,50.937
0.318,26.288,4.571,4.663,31.470,11.973,50.730
0.319,26.666,4.546,4.640,31.343,11.691,50.513
0.321,27.050,4.530,4.624,31.212,11.404,50.293
0.322,27.433,4.525,4.616,31.079,11.119,50.075
0.323,27.805,4.535,4.619,30.948,10.842,49.864
0.325,28.156,4.561,4.635,30.821,10.581,49.666
0.326,28.478,4.599,4.661,30.700,10.343,49.485
0.327,28.762,4.648,4.695,30.589,10.135,49.328
0.328,28.999,4.702,4.735,30.488,9.963,49.200
0.330,29.187,4.758,4.777,30.400,9.829,49.102
0.331,29.332,4.812,4.821,30.324,9.728,49.031
0.332,29.442,4.859,4.861,30.260,9.653,48.983
0.334,29.522,4.898,4.897,30.206,9.601,48.955
0.335,29.579,4.924,4.927,30.163,9.565,48.944
0.336,29.621,4.940,4.951,30.130,9.540,48.947
0.338,29.654,4.947,4.967,30.106,9.520,48.961
0.339,29.686,4.946,4.978,30.091,9.501,48.981
0.340,29.720,4.939,4.983,30.084,9.477,49.005
0.342,29.763,4.927,4.981,30.086,9.443,49.029
0.343,29.818,4.911,4.973,30.094,9.392,49.051
0.344,29.893,4.893,4.960,30.109,9.321,49.066
0.346,29.992,4.874,4.942,30.131,9.224,49.073
0.347,30.113,4.854,4.920,30.157,9.106,49.071
0.348,30.254,4.835,4.896,30.188,8.968,49.062
0.350,30.411,4.817,4.873,30.221,8.816,49.047
0.351,30.580,4.802,4.851,30.257,8.652,49.027
0.352,30.757,4.790,4.831,30.294,8.481,49.002
0.354,30.938,4.782,4.816,30.331,8.306,48.974
0.355,31.119,4.780,4.807,30.367,8.131,48.943
0.356,31.297,4.781,4.803,30.401,7.959,48.912
0.358,31.467,4.786,4.803,30.433,7.795,48.880
0.359,31.626,4.794,4.806,30.460,7.642,48.848
0.360,31.770,4.804,4.812,30.482,7.503,48.819
0.361,31.894,4.814,4.819,30.498,7.383,48.792
0.363,31.999,4.826,4.827,30.507,7.281,48.768
0.364,32.087,4.836,4.835,30.512,7.196,48.746
0.365,32.160,4.846,4.843,30.511,7.126,48.726
0.367,32.219,4.855,4.850,30.506,7.070,48.707
0.368,32.268,4.864,4.858,30.497,7.025,48.689
0.369,32.309,4.873,4.866,30.484,6.990,48.672
0.371,32.345,4.882,4.876,30.469,6.963,48.655
0.372,32.377,4.892,4.888,30.452,6.942,48.637
0.373,32.408,4.903,4.901,30.433,6.925,48.619
0.375,32.440,4.914,4.918,30.413,6.911,48.599
0.376,32.472,4.927,4.936,30.393,6.899,48.577
0.377,32.507,4.940,4.956,30.372,6.885,48.553
0.379,32.544,4.954,4.978,30.352,6.868,48.527
0.380,32.583,4.968,4.999,30.333,6.849,48.498
0.381,32.626,4.983,5.020,30.313,6.826,48.468
0.383,32.671,4.997,5.040,30.294,6.798,48.437
0.384,32.721,5.010,5.059,30.275,6.766,48.406
0.385,32.773,5.023,5.075,30.256,6.728,48.374
0.387,32.831,5.035,5.090,30.237,6.683,48.343
0.388,32.893,5.047,5.103,30.218,6.632,48.314
0.389,32.961,5.059,5.116,30.199,6.573,48.285
0.391,33.036,5.071,5.128,30.180,6.506,48.259
0.392,33.118,5.082,5.141,30.160,6.430,48.236
0.393,33.208,5.094,5.154,30.139,6.345,48.216
0.394,33.307,5.106,5.168,30.119,6.249,48.199
0.396,33.413,5.119,5.184,30.098,6.145,48.186
0.397,33.527,5.131,5.200,30.077,6.034,48.176
0.398,33.645,5.143,5.217,30.056,5.918,48.169
0.400,33.766,5.155,5.234,30.037,5.799,48.164
0.401,33.888,5.166,5.250,30.019,5.678,48.161
0.402,34.010,5.175,5.266,30.003,5.557,48.160
0.404,34.129,5.184,5.280,29.990,5.439,48.160
0.405,34.244,5.190,5.293,29.979,5.325,48.162
0.406,34.352,5.195,5.303,29.971,5.217,48.163
0.408,34.453,5.199,5.312,29.966,5.116,48.165
0.409,34.544,5.201,5.319,29.966,5.025,48.167
0.410,34.624,5.203,5.323,29.970,4.945,48.168
0.412,34.693,5.204,5.326,29.978,4.877,48.168
0.413,34.754,5.206,5.326,29.990,4.817,48.166
0.414,34.810,5.207,5.324,30.006,4.764,48.161
0.416,34.864,5.208,5.320,30.024,4.713,48.154
0.417,34.920,5.210,5.314,30.045,4.662,48.142
0.418,34.980,5.211,5.305,30.067,4.609,48.125
0.420,35.047,5.211,5.295,30.091,4.550,48.103
0.421,35.124,5.210,5.282,30.115,4.483,48.075
0.422,35.214,5.208,5.268,30.140,4.404,48.040
0.423,35.319,5.204,5.253,30.164,4.311,47.997
0.425,35.443,5.198,5.236,30.187,4.201,47.945
0.426,35.588,5.191,5.219,30.209,4.071,47.885
0.427,35.756,5.183,5.202,30.229,3.919,47.815
0.429,35.946,5.177,5.188,30.246,3.748,47.736
0.430,36.152,5.173,5.178,30.261,3.562,47.649
0.431,36.370,5.173,5.174,30.274,3.364,47.557
0.433,36.596,5.179,5.178,30.283,3.160,47.459
0.434,36.826,5.191,5.190,30.289,2.954,47.359
0.435,37.056,5.211,5.213,30.292,2.748,47.255
0.437,37.281,5.239,5.245,30.291,2.549,47.152
0.438,37.497,5.271,5.284,30.287,2.359,47.048
0.439,37.701,5.308,5.326,30.278,2.183,46.946
0.441,37.888,5.345,5.368,30.264,2.025,46.848
0.442,38.054,5.383,5.409,30.246,1.889,46.753
0.443,38.196,5.419,5.445,30.224,1.780,46.665
0.445,38.317,5.450,5.474,30.196,1.697,46.582
0.446,38.421,5.477,5.494,30.162,1.636,46.505
0.447,38.514,5.497,5.507,30.123,1.594,46.432
0.449,38.601,5.512,5.514,30.079,1.566,46.362
0.450,38.686,5.520,5.517,30.028,1.548,46.296
0.451,38.773,5.523,5.518,29.971,1.536,46.231
0.453,38.864,5.519,5.520,29.907,1.527,46.168
0.454,38.959,5.508,5.523,29.837,1.515,46.105
0.455,39.060,5.490,5.530,29.759,1.497,46.042
0.456,39.170,5.467,5.542,29.675,1.469,45.977
0.458,39.291,5.441,5.557,29.582,1.427,45.911
0.459,39.427,5.414,5.573,29.483,1.366,45.842
0.460,39.580,5.389,5.589,29.375,1.285,45.770
0.462,39.749,5.368,5.604,29.261,1.184,45.696
0.463,39.933,5.354,5.616,29.142,1.068,45.619
0.464,40.127,5.350,5.623,29.019,0.939,45.541
0.466,40.329,5.357,5.626,28.894,0.800,45.463
0.467,40.537,5.374,5.623,28.767,0.655,45.385
0.468,40.746,5.399,5.617,28.641,0.507,45.309
0.470,40.954,5.430,5.608,28.516,0.358,45.234
0.471,41.158,5.463,5.598,28.395,0.212,45.161
0.472,41.353,5.497,5.589,28.278,0.072,45.092
0.474,41.537,5.529,5.582,28.166,-0.059,45.027
0.475,41.706,5.557,5.577,28.061,-0.178,44.967
0.476,41.858,5.578,5.576,27.965,-0.282,44.912
0.478,41.992,5.594,5.579,27.878,-0.371,44.863
0.479,42.110,5.606,5.585,27.798,-0.445,44.819
0.480,42.212,5.615,5.594,27.726,-0.507,44.780
0.482,42.301,5.623,5.605,27.662,-0.557,44.746
0.483,42.378,5.630,5.619,27.604,-0.597,44.716
0.484,42.443,5.637,5.634,27.552,-0.628,44.690
0.485,42.499,5.647,5.650,27.506,-0.652,44.668
0.487,42.547,5.658,5.667,27.466,-0.669,44.649
0.488,42.588,5.672,5.684,27.430,-0.681,44.633
0.489,42.623,5.685,5.702,27.399,-0.690,44.620
0.491,42.652,5.699,5.719,27.372,-0.696,44.609
0.492,42.678,5.713,5.735,27.349,-0.700,44.600
0.493,42.700,5.725,5.749,27.328,-0.705,44.593
0.495,42.720,5.735,5.762,27.309,-0.711,44.588
0.496,42.740,5.743,5.773,27.292,-0.717,44.582
0.497,42.760,5.748,5.782,27.274,-0.725,44.576
0.499,42.783,5.752,5.790,27.255,-0.735,44.570
0.500,42.809,5.757,5.798,27.234,-0.748,44.561
0.501,42.839,5.761,5.807,27.210,-0.763,44.550
0.503,42.876,5.767,5.818,27.182,-0.782,44.537
0.504,42.920,5.776,5.831,27.148,-0.805,44.519
0.505,42.973,5.788,5.847,27.109,-0.833,44.498
0.507,43.036,5.804,5.866,27.062,-0.865,44.471
0.508,43.110,5.824,5.890,27.007,-0.903,44.438
0.509,43.196,5.847,5.917,26.943,-0.947,44.400
0.511,43.294,5.873,5.947,26.871,-0.996,44.356
0.512,43.401,5.901,5.980,26.793,-1.049,44.307
0.513,43.514,5.932,6.016,26.709,-1.105,44.255
0.515,43.632,5.966,6.055,26.622,-1.163,44.200
0.516,43.752,6.000,6.097,26.534,-1.222,44.144
0.517,43.873,6.036,6.140,26.445,-1.281,44.088
0.518,43.991,6.072,6.184,26.358,-1.338,44.032
0.520,44.104,6.108,6.227,26.274,-1.392,43.978
0.521,44.212,6.141,6.269,26.194,-1.442,43.927
0.522,44.310,6.172,6.307,26.121,-1.488,43.880
0.524,44.397,6.200,6.341,26.056,-1.528,43.838
0.525,44.471,6.222,6.370,26.000,-1.561,43.802
0.526,44.531,6.240,6.393,25.954,-1.586,43.773
0.528,44.579,6.253,6.409,25.916,-1.605,43.749
0.529,44.617,6.262,6.419,25.886,-1.618,43.730
0.530,44.647,6.268,6.424,25.862,-1.626,43.715
0.532,44.671,6.272,6.426,25.841,-1.631,43.704
0.533,44.691,6.275,6.423,25.823,-1.633,43.694
0.534,44.709,6.278,6.417,25.807,-1.633,43.687
0.536,44.727,6.283,6.409,25.790,-1.632,43.680
0.537,44.747,6.288,6.399,25.772,-1.631,43.673
0.538,44.769,6.296,6.389,25.751,-1.631,43.666
0.540,44.797,6.304,6.378,25.725,-1.632,43.657
0.541,44.831,6.314,6.368,25.693,-1.637,43.645
0.542,44.873,6.324,6.360,25.655,-1.645,43.630
0.544,44.924,6.334,6.354,25.609,-1.656,43.610
0.545,44.983,6.344,6.352,25.559,-1.670,43.583
0.546,45.050,6.354,6.354,25.505,-1.686,43.546
0.547,45.127,6.364,6.359,25.448,-1.705,43.499
0.549,45.213,6.370,6.365,25.390,-1.725,43.438
0.550,45.311,6.373,6.370,25.332,-1.746,43.362
0.551,45.423,6.372,6.372,25.275,-1.768,43.268
0.553,45.550,6.364,6.368,25.220,-1.791,43.156
0.554,45.695,6.348,6.356,25.169,-1.813,43.022
0.555,45.860,6.324,6.333,25.122,-1.834,42.865
0.557,46.048,6.290,6.299,25.082,-1.855,42.682
0.558,46.261,6.248,6.255,25.050,-1.874,42.473
0.559,46.498,6.199,6.205,25.025,-1.891,42.238
0.561,46.754,6.147,6.153,25.007,-1.908,41.983
0.562,47.023,6.093,6.102,24.996,-1.923,41.714
0.563,47.301,6.039,6.055,24.992,-1.939,41.437
0.565,47.581,5.987,6.017,24.993,-1.954,41.157
0.566,47.859,5.941,5.991,25.000,-1.970,40.880
0.567,48.129,5.900,5.978,25.012,-1.986,40.611
0.569,48.384,5.867,5.977,25.028,-2.004,40.356
0.570,48.621,5.839,5.983,25.049,-2.023,40.122
0.571,48.833,5.819,5.994,25.073,-2.044,39.912
0.573,49.015,5.805,6.007,25.100,-2.068,39.734
0.574,49.162,5.798,6.019,25.130,-2.094,39.593
0.575,49.272,5.798,6.027,25.162,-2.123,39.491
0.577,49.354,5.804,6.028,25.194,-2.156,39.423
