"T","Distance","Radius","FreeRadius","X","Y","Z"
0.000,0.000,3.114,3.114,74.544,-50.445,-3.118
0.001,0.286,3.242,3.242,74.404,-50.543,-3.348
0.003,0.569,3.368,3.368,74.266,-50.639,-3.575
0.004,0.845,3.493,3.493,74.130,-50.733,-3.797
0.006,1.112,3.616,3.616,73.999,-50.822,-4.011
0.007,1.366,3.735,3.735,73.873,-50.904,-4.216
0.009,1.604,3.851,3.851,73.754,-50.980,-4.408
0.010,1.823,3.963,3.963,73.644,-51.047,-4.585
0.012,2.020,4.069,4.069,73.543,-51.103,-4.744
0.013,2.191,4.168,4.168,73.454,-51.147,-4.884
0.015,2.335,4.259,4.259,73.377,-51.178,-5.001
0.016,2.447,4.340,4.340,73.314,-51.195,-5.093
0.018,2.529,4.409,4.409,73.266,-51.195,-5.159
0.019,2.585,4.465,4.465,73.232,-51.183,-5.201
0.021,2.625,4.507,4.507,73.210,-51.159,-5.225
0.022,2.659,4.535,4.535,73.198,-51.128,-5.232
0.024,2.695,4.551,4.551,73.196,-51.092,-5.228
0.025,2.736,4.559,4.559,73.200,-51.053,-5.217
0.027,2.779,4.561,4.561,73.211,-51.015,-5.201
0.028,2.821,4.560,4.560,73.226,-50.979,-5.185
0.030,2.858,4.558,4.558,73.244,-50.949,-5.173
0.031,2.887,4.557,4.557,73.264,-50.928,-5.168
0.033,2.910,4.559,4.559,73.283,-50.918,-5.175
0.034,2.937,4.564,4.564,73.300,-50.920,-5.196
0.036,2.976,4.570,4.570,73.315,-50.935,-5.229
0.037,3.028,4.579,4.579,73.328,-50.960,-5.273
0.039,3.091,4.590,4.590,73.337,-50.993,-5.326
0.040,3.163,4.603,4.603,73.341,-51.034,-5.385
0.042,3.242,4.618,4.618,73.341,-51.081,-5.448
0.043,3.326,4.633,4.633,73.336,-51.132,-5.515
0.045,3.412,4.648,4.648,73.325,-51.185,-5.582
0.046,3.500,4.661,4.661,73.308,-51.240,-5.647
0.048,3.586,4.672,4.672,73.283,-51.295,-5.710
0.049,3.671,4.678,4.678,73.251,-51.348,-5.767
0.051,3.752,4.679,4.679,73.212,-51.398,-5.817
0.052,3.829,4.673,4.673,73.166,-51.443,-5.861
0.054,3.901,4.662,4.662,73.118,-51.482,-5.898
0.055,3.967,4.646,4.646,73.068,-51.513,-5.929
0.057,4.026,4.624,4.624,73.019,-51.534,-5.952
0.058,4.076,4.598,4.598,72.973,-51.545,-5.970
0.060,4.118,4.567,4.567,72.933,-51.543,-5.981
0.061,4.155,4.531,4.531,72.900,-51.527,-5.985
0.063,4.194,4.494,4.494,72.877,-51.496,-5.984
0.064,4.244,4.458,4.458,72.865,-51.448,-5.976
0.066,4.312,4.426,4.426,72.868,-51.381,-5.962
0.067,4.399,4.403,4.403,72.884,-51.298,-5.943
0.069,4.496,4.391,4.391,72.911,-51.207,-5.921
0.070,4.594,4.394,4.394,72.942,-51.117,-5.899
0.072,4.682,4.415,4.415,72.973,-51.037,-5.879
0.073,4.750,4.448,4.448,73.000,-50.976,-5.863
0.075,4.788,4.485,4.485,73.017,-50.944,-5.855
0.076,4.795,4.519,4.519,73.020,-50.949,-5.856
0.078,4.851,4.542,4.542,73.005,-51.002,-5.869
0.079,4.969,4.545,4.545,72.967,-51.110,-5.897
0.081,5.161,4.522,4.522,72.900,-51.284,-5.942
0.082,5.435,4.467,4.467,72.800,-51.532,-6.007
0.084,5.794,4.389,4.389,72.667,-51.854,-6.091
0.085,6.220,4.299,4.299,72.508,-52.236,-6.191
0.087,6.697,4.207,4.207,72.328,-52.664,-6.302
0.088,7.208,4.123,4.123,72.136,-53.122,-6.420
0.090,7.735,4.058,4.058,71.938,-53.596,-6.541
0.091,8.262,4.022,4.022,71.741,-54.069,-6.661
0.093,8.771,4.018,4.018,71.552,-54.528,-6.775
0.094,9.245,4.039,4.039,71.378,-54.956,-6.878
0.096,9.667,4.079,4.079,71.226,-55.340,-6.968
0.097,10.020,4.128,4.128,71.104,-55.663,-7.038
0.099,10.287,4.180,4.180,71.017,-55.911,-7.086
0.100,10.465,4.226,4.226,70.967,-56.080,-7.111
0.102,10.567,4.260,4.260,70.948,-56.181,-7.116
0.103,10.611,4.281,4.281,70.952,-56.223,-7.108
0.105,10.639,4.291,4.291,70.973,-56.220,-7.090
0.106,10.694,4.295,4.295,71.004,-56.181,-7.067
0.108,10.768,4.296,4.296,71.038,-56.118,-7.045
0.109,10.852,4.297,4.297,71.068,-56.042,-7.027
0.111,10.932,4.301,4.301,71.086,-55.965,-7.018
0.112,11.000,4.313,4.313,71.087,-55.897,-7.024
0.114,11.058,4.331,4.331,71.064,-55.850,-7.049
0.115,11.133,4.355,4.355,71.008,-55.835,-7.097
0.117,11.248,4.383,4.383,70.921,-55.855,-7.169
0.118,11.402,4.416,4.416,70.807,-55.905,-7.260
0.120,11.588,4.451,4.451,70.673,-55.979,-7.365
0.121,11.796,4.488,4.488,70.526,-56.072,-7.480
0.123,12.019,4.525,4.525,70.371,-56.178,-7.599
0.124,12.245,4.562,4.562,70.215,-56.292,-7.718
0.126,12.466,4.595,4.595,70.065,-56.408,-7.831
0.127,12.672,4.624,4.624,69.926,-56.520,-7.933
0.129,12.853,4.645,4.645,69.805,-56.624,-8.021
0.130,13.001,4.658,4.658,69.709,-56.712,-8.088
0.132,13.105,4.660,4.660,69.643,-56.781,-8.131
0.133,13.167,4.652,4.652,69.607,-56.828,-8.150
0.135,13.199,4.637,4.637,69.594,-56.857,-8.150
0.136,13.219,4.619,4.619,69.598,-56.872,-8.139
0.138,13.242,4.602,4.602,69.612,-56.875,-8.121
0.139,13.268,4.588,4.588,69.630,-56.870,-8.102
0.141,13.290,4.582,4.582,69.645,-56.860,-8.089
0.142,13.304,4.586,4.586,69.651,-56.848,-8.088
0.144,13.326,4.603,4.603,69.640,-56.837,-8.105
0.145,13.379,4.632,4.632,69.606,-56.831,-8.145
0.147,13.473,4.675,4.675,69.542,-56.833,-8.214
0.148,13.618,4.730,4.730,69.443,-56.846,-8.319
0.150,13.813,4.800,4.800,69.309,-56.870,-8.458
0.151,14.048,4.883,4.883,69.146,-56.903,-8.625
0.153,14.316,4.981,4.981,68.961,-56.943,-8.815
0.154,14.606,5.089,5.089,68.760,-56.988,-9.020
0.156,14.911,5.203,5.203,68.550,-57.035,-9.235
0.157,15.219,5.320,5.320,68.338,-57.083,-9.454
0.159,15.524,5.436,5.436,68.129,-57.128,-9.670
0.160,15.815,5.545,5.545,67.930,-57.169,-9.878
0.162,16.083,5.644,5.644,67.747,-57.205,-10.071
0.163,16.319,5.731,5.731,67.588,-57.231,-10.244
0.165,16.515,5.805,5.804,67.458,-57.247,-10.390
0.166,16.671,5.866,5.866,67.357,-57.253,-10.509
0.168,16.792,5.915,5.915,67.282,-57.250,-10.603
0.169,16.882,5.952,5.952,67.230,-57.239,-10.675
0.171,16.946,5.977,5.977,67.196,-57.222,-10.728
0.172,16.992,5.991,5.991,67.179,-57.201,-10.764
0.174,17.026,5.995,5.995,67.173,-57.176,-10.787
0.175,17.054,5.991,5.992,67.176,-57.150,-10.798
0.177,17.082,5.981,5.982,67.185,-57.123,-10.800
0.178,17.110,5.968,5.968,67.195,-57.098,-10.796
0.180,17.136,5.952,5.953,67.204,-57.075,-10.789
0.181,17.156,5.937,5.937,67.208,-57.056,-10.781
0.183,17.173,5.925,5.925,67.206,-57.041,-10.774
0.184,17.185,5.916,5.915,67.201,-57.031,-10.771
0.186,17.197,5.910,5.908,67.191,-57.023,-10.773
0.187,17.213,5.907,5.905,67.180,-57.019,-10.782
0.189,17.235,5.907,5.905,67.167,-57.018,-10.801
0.190,17.268,5.910,5.909,67.153,-57.019,-10.831
0.192,17.313,5.916,5.916,67.140,-57.021,-10.874
0.193,17.373,5.925,5.927,67.129,-57.026,-10.932
0.195,17.449,5.937,5.941,67.120,-57.031,-11.007
0.196,17.544,5.950,5.957,67.114,-57.038,-11.102
0.198,17.659,5.965,5.973,67.113,-57.044,-11.217
0.199,17.792,5.981,5.988,67.116,-57.052,-11.350
0.201,17.939,5.997,6.002,67.121,-57.060,-11.497
0.202,18.096,6.012,6.014,67.129,-57.069,-11.653
0.204,18.259,6.026,6.022,67.138,-57.080,-11.815
0.205,18.422,6.038,6.027,67.147,-57.092,-11.978
0.207,18.583,6.045,6.029,67.155,-57.107,-12.138
0.208,18.737,6.046,6.028,67.162,-57.123,-12.290
0.210,18.879,6.040,6.024,67.166,-57.143,-12.431
0.211,19.006,6.025,6.018,67.167,-57.165,-12.556
0.213,19.114,5.999,6.009,67.163,-57.190,-12.661
0.214,19.201,5.965,5.998,67.154,-57.219,-12.743
0.216,19.268,5.925,5.987,67.141,-57.250,-12.801
0.217,19.321,5.883,5.977,67.124,-57.281,-12.841
0.219,19.364,5.845,5.968,67.106,-57.312,-12.863
0.220,19.399,5.812,5.963,67.087,-57.341,-12.871
0.222,19.429,5.791,5.962,67.069,-57.365,-12.869
0.223,19.457,5.783,5.966,67.052,-57.384,-12.858
0.225,19.481,5.787,5.976,67.039,-57.397,-12.842
0.226,19.502,5.801,5.990,67.030,-57.400,-12.824
0.228,19.521,5.821,6.006,67.027,-57.394,-12.806
0.229,19.544,5.843,6.025,67.031,-57.377,-12.791
0.231,19.577,5.865,6.046,67.043,-57.347,-12.783
0.232,19.619,5.882,6.066,67.058,-57.308,-12.783
0.234,19.667,5.891,6.085,67.073,-57.264,-12.794
0.235,19.719,5.891,6.098,67.083,-57.219,-12.818
0.237,19.777,5.879,6.101,67.083,-57.176,-12.858
0.238,19.847,5.852,6.087,67.068,-57.142,-12.916
0.240,19.935,5.809,6.052,67.033,-57.118,-12.994
0.241,20.052,5.748,5.990,66.975,-57.110,-13.095
0.243,20.205,5.665,5.898,66.888,-57.122,-13.221
0.244,20.403,5.563,5.774,66.768,-57.158,-13.374
0.246,20.653,5.446,5.628,66.609,-57.221,-13.556
0.247,20.959,5.322,5.469,66.410,-57.315,-13.769
0.249,21.314,5.195,5.306,66.176,-57.435,-14.007
0.250,21.704,5.073,5.149,65.917,-57.576,-14.263
0.252,22.117,4.963,5.007,65.641,-57.730,-14.529
0.253,22.541,4.868,4.890,65.357,-57.892,-14.798
0.255,22.963,4.792,4.799,65.074,-58.057,-15.064
0.256,23.370,4.733,4.731,64.799,-58.217,-15.318
0.258,23.749,4.687,4.682,64.543,-58.368,-15.554
0.259,24.089,4.652,4.647,64.313,-58.502,-15.764
0.261,24.375,4.626,4.624,64.119,-58.614,-15.942
0.262,24.595,4.607,4.607,63.969,-58.698,-16.079
0.264,24.741,4.592,4.593,63.868,-58.751,-16.172
0.265,24.823,4.581,4.581,63.811,-58.775,-16.225
0.267,24.853,4.572,4.571,63.790,-58.777,-16.246
0.268,24.869,4.566,4.564,63.797,-58.764,-16.242
0.270,24.911,4.561,4.559,63.824,-58.740,-16.219
0.271,24.969,4.558,4.556,63.862,-58.713,-16.185
0.273,25.032,4.556,4.556,63.905,-58.687,-16.146
0.274,25.087,4.554,4.559,63.943,-58.669,-16.110
0.276,25.124,4.553,4.564,63.968,-58.664,-16.084
0.277,25.142,4.555,4.573,63.973,-58.679,-16.075
0.279,25.191,4.559,4.585,63.950,-58.719,-16.090
0.280,25.290,4.567,4.600,63.893,-58.788,-16.133
0.282,25.435,4.580,4.619,63.807,-58.883,-16.201
0.283,25.617,4.598,4.641,63.697,-58.997,-16.291
0.285,25.829,4.621,4.667,63.568,-59.126,-16.398
0.286,26.061,4.648,4.695,63.426,-59.266,-16.517
0.288,26.306,4.678,4.724,63.276,-59.411,-16.645
0.289,26.554,4.709,4.753,63.124,-59.556,-16.778
0.291,26.798,4.740,4.780,62.975,-59.697,-16.910
0.292,27.029,4.768,4.804,62.835,-59.828,-17.039
0.294,27.239,4.793,4.824,62.709,-59.944,-17.160
0.295,27.419,4.814,4.839,62.602,-60.041,-17.268
0.297,27.565,4.832,4.850,62.518,-60.116,-17.361
0.298,27.681,4.846,4.858,62.455,-60.172,-17.441
0.300,27.773,4.857,4.864,62.409,-60.213,-17.509
0.301,27.845,4.864,4.867,62.380,-60.242,-17.567
0.303,27.903,4.868,4.869,62.363,-60.264,-17.619
0.304,27.953,4.870,4.869,62.357,-60.283,-17.665
0.306,28.000,4.870,4.869,62.358,-60.302,-17.707
0.307,28.047,4.869,4.870,62.365,-60.324,-17.748
0.309,28.100,4.869,4.870,62.373,-60.355,-17.790
0.310,28.162,4.870,4.872,62.382,-60.398,-17.835
0.312,28.239,4.873,4.875,62.387,-60.457,-17.884
0.313,28.333,4.881,4.880,62.388,-60.533,-17.939
0.315,28.443,4.893,4.888,62.383,-60.624,-18.000
0.316,28.567,4.907,4.898,62.372,-60.728,-18.068
0.318,28.704,4.923,4.910,62.354,-60.842,-18.142
0.319,28.852,4.939,4.924,62.329,-60.963,-18.223
0.321,29.009,4.953,4.939,62.295,-61.089,-18.310
0.322,29.173,4.963,4.957,62.253,-61.216,-18.404
0.324,29.343,4.969,4.975,62.201,-61.343,-18.505
0.325,29.518,4.970,4.995,62.140,-61.467,-18.613
0.327,29.698,4.969,5.017,62.067,-61.585,-18.727
0.328,29.881,4.967,5.040,61.984,-61.694,-18.848
0.330,30.068,4.967,5.064,61.890,-61.792,-18.976
0.331,30.257,4.973,5.090,61.787,-61.882,-19.107
0.333,30.446,4.985,5.117,61.679,-61.962,-19.240
0.334,30.634,5.007,5.145,61.567,-62.035,-19.372
0.336,30.817,5.037,5.174,61.454,-62.100,-19.500
0.337,30.992,5.074,5.203,61.343,-62.158,-19.623
0.339,31.158,5.115,5.231,61.236,-62.212,-19.738
0.340,31.310,5.157,5.257,61.136,-62.260,-19.842
0.342,31.446,5.197,5.279,61.044,-62.304,-19.933
0.343,31.563,5.235,5.298,60.965,-62.344,-20.009
0.345,31.658,5.267,5.313,60.900,-62.382,-20.067
0.346,31.733,5.293,5.323,60.849,-62.418,-20.107
0.348,31.790,5.315,5.331,60.811,-62.452,-20.133
0.349,31.836,5.331,5.338,60.783,-62.486,-20.149
0.351,31.875,5.344,5.344,60.763,-62.518,-20.158
0.352,31.911,5.354,5.352,60.748,-62.550,-20.163
0.354,31.945,5.360,5.361,60.737,-62.581,-20.169
0.355,31.980,5.365,5.373,60.726,-62.613,-20.179
0.357,32.019,5.368,5.388,60.714,-62.646,-20.197
0.358,32.067,5.371,5.405,60.699,-62.680,-20.227
0.360,32.128,5.376,5.423,60.677,-62.715,-20.272
0.361,32.207,5.384,5.442,60.647,-62.752,-20.335
0.363,32.306,5.396,5.462,60.608,-62.790,-20.418
0.364,32.420,5.412,5.481,60.563,-62.829,-20.514
0.366,32.544,5.433,5.500,60.513,-62.867,-20.622
0.367,32.673,5.457,5.518,60.462,-62.904,-20.734
0.369,32.803,5.480,5.535,60.411,-62.939,-20.849
0.370,32.928,5.501,5.550,60.363,-62.969,-20.960
0.372,33.044,5.518,5.563,60.320,-62.996,-21.064
0.373,33.145,5.527,5.573,60.285,-63.016,-21.157
0.375,33.227,5.527,5.581,60.259,-63.030,-21.234
0.376,33.285,5.518,5.586,60.245,-63.036,-21.290
0.378,33.317,5.505,5.589,60.245,-63.034,-21.321
0.379,33.335,5.489,5.590,60.258,-63.024,-21.329
0.381,33.364,5.474,5.590,60.280,-63.008,-21.319
0.382,33.403,5.462,5.590,60.307,-62.991,-21.296
0.384,33.446,5.456,5.590,60.334,-62.973,-21.268
0.385,33.486,5.458,5.590,60.358,-62.959,-21.239
0.387,33.515,5.467,5.590,60.373,-62.950,-21.215
0.388,33.528,5.482,5.591,60.376,-62.950,-21.203
0.390,33.546,5.498,5.592,60.363,-62.960,-21.209
0.391,33.597,5.515,5.594,60.328,-62.985,-21.237
0.393,33.689,5.530,5.596,60.269,-63.025,-21.295
0.394,33.831,5.541,5.598,60.180,-63.085,-21.388
0.396,34.019,5.547,5.601,60.063,-63.163,-21.514
0.397,34.246,5.549,5.605,59.924,-63.255,-21.667
0.399,34.501,5.549,5.609,59.768,-63.357,-21.841
0.400,34.776,5.550,5.614,59.600,-63.466,-22.030
0.402,35.061,5.553,5.620,59.426,-63.578,-22.226
0.403,35.347,5.559,5.628,59.252,-63.689,-22.424
0.405,35.624,5.570,5.636,59.083,-63.795,-22.616
0.406,35.884,5.587,5.646,58.924,-63.892,-22.797
0.408,36.116,5.607,5.656,58.781,-63.977,-22.959
0.409,36.312,5.629,5.664,58.660,-64.046,-23.097
0.411,36.463,5.649,5.672,58.565,-64.094,-23.204
0.412,36.570,5.666,5.677,58.496,-64.124,-23.280
0.414,36.639,5.677,5.679,58.450,-64.138,-23.330
0.415,36.679,5.681,5.677,58.422,-64.141,-23.357
0.417,36.697,5.679,5.672,58.408,-64.135,-23.368
0.418,36.707,5.672,5.664,58.405,-64.126,-23.364
0.420,36.723,5.663,5.656,58.408,-64.116,-23.353
0.421,36.741,5.652,5.648,58.413,-64.110,-23.336
0.423,36.758,5.642,5.640,58.417,-64.110,-23.320
0.424,36.775,5.636,5.636,58.414,-64.122,-23.308
0.426,36.804,5.633,5.634,58.402,-64.148,-23.305
0.427,36.856,5.635,5.636,58.376,-64.193,-23.314
0.429,36.932,5.641,5.642,58.338,-64.254,-23.336
0.430,37.028,5.650,5.651,58.288,-64.329,-23.369
0.432,37.139,5.664,5.664,58.231,-64.415,-23.410
0.433,37.260,5.681,5.681,58.169,-64.507,-23.458
0.435,37.386,5.701,5.701,58.104,-64.603,-23.510
0.436,37.513,5.724,5.726,58.039,-64.699,-23.563
0.438,37.637,5.750,5.752,57.977,-64.791,-23.616
0.439,37.751,5.776,5.779,57.921,-64.876,-23.666
0.441,37.851,5.802,5.806,57.873,-64.952,-23.711
0.442,37.932,5.827,5.830,57.835,-65.013,-23.749
0.444,37.991,5.850,5.852,57.811,-65.058,-23.779
0.445,38.030,5.871,5.868,57.799,-65.089,-23.799
0.447,38.054,5.888,5.881,57.796,-65.109,-23.812
0.448,38.070,5.904,5.892,57.799,-65.123,-23.819
0.450,38.085,5.918,5.902,57.807,-65.136,-23.822
0.451,38.103,5.931,5.914,57.815,-65.151,-23.821
0.453,38.126,5.943,5.931,57.822,-65.173,-23.818
0.454,38.160,5.956,5.953,57.825,-65.207,-23.815
0.456,38.210,5.970,5.984,57.821,-65.257,-23.813
0.457,38.281,5.985,6.021,57.807,-65.326,-23.813
0.459,38.378,6.004,6.064,57.780,-65.420,-23.816
0.460,38.507,6.027,6.111,57.739,-65.541,-23.825
0.462,38.664,6.055,6.161,57.684,-65.687,-23.838
0.463,38.843,6.090,6.211,57.619,-65.854,-23.854
0.465,39.041,6.133,6.260,57.545,-66.036,-23.873
0.466,39.249,6.183,6.307,57.466,-66.228,-23.893
0.468,39.464,6.239,6.351,57.383,-66.426,-23.915
0.469,39.680,6.298,6.392,57.300,-66.623,-23.935
0.471,39.890,6.356,6.430,57.219,-66.816,-23.955
0.472,40.089,6.412,6.464,57.143,-66.999,-23.973
0.474,40.272,6.462,6.493,57.074,-67.168,-23.987
0.475,40.432,6.504,6.518,57.015,-67.317,-23.997
0.477,40.566,6.535,6.539,56.968,-67.442,-24.002
0.478,40.675,6.559,6.556,56.932,-67.544,-24.003
0.480,40.761,6.576,6.570,56.906,-67.627,-24.001
0.481,40.828,6.589,6.582,56.889,-67.691,-23.995
0.483,40.879,6.598,6.594,56.879,-67.741,-23.988
0.484,40.918,6.607,6.605,56.875,-67.778,-23.979
0.486,40.947,6.615,6.617,56.875,-67.806,-23.970
0.487,40.970,6.625,6.630,56.878,-67.827,-23.962
0.489,40.988,6.635,6.644,56.883,-67.843,-23.954
0.490,41.005,6.645,6.657,56.888,-67.858,-23.949
0.492,41.020,6.655,6.669,56.892,-67.873,-23.946
0.493,41.039,6.664,6.680,56.893,-67.891,-23.947
0.495,41.060,6.672,6.689,56.892,-67.912,-23.951
0.496,41.084,6.679,6.696,56.889,-67.935,-23.958
0.498,41.110,6.684,6.700,56.885,-67.959,-23.967
0.499,41.138,6.689,6.703,56.880,-67.984,-23.977
0.501,41.167,6.692,6.705,56.874,-68.010,-23.989
0.502,41.195,6.695,6.706,56.868,-68.034,-24.001
0.504,41.222,6.697,6.706,56.862,-68.058,-24.013
0.505,41.247,6.698,6.706,56.856,-68.079,-24.024
0.507,41.269,6.700,6.707,56.851,-68.098,-24.035
0.508,41.287,6.701,6.708,56.848,-68.114,-24.043
0.510,41.301,6.702,6.709,56.846,-68.125,-24.050
0.511,41.311,6.703,6.710,56.845,-68.134,-24.056
0.513,41.320,6.704,6.712,56.845,-68.142,-24.060
0.514,41.327,6.706,6.714,56.845,-68.148,-24.064
0.516,41.336,6.708,6.715,56.845,-68.156,-24.068
0.517,41.346,6.711,6.717,56.845,-68.165,-24.073
0.519,41.360,6.714,6.719,56.843,-68.177,-24.079
0.520,41.379,6.717,6.721,56.840,-68.194,-24.087
0.522,41.403,6.721,6.724,56.836,-68.215,-24.098
0.523,41.435,6.725,6.726,56.828,-68.243,-24.111
0.525,41.476,6.729,6.729,56.818,-68.279,-24.128
0.526,41.526,6.733,6.732,56.805,-68.323,-24.148
0.528,41.585,6.737,6.736,56.789,-68.374,-24.173
0.529,41.651,6.742,6.740,56.771,-68.432,-24.200
0.531,41.724,6.747,6.746,56.752,-68.495,-24.230
0.532,41.801,6.754,6.753,56.731,-68.563,-24.261
0.534,41.883,6.762,6.761,56.710,-68.634,-24.295
0.535,41.967,6.772,6.772,56.689,-68.708,-24.329
0.537,42.053,6.783,6.785,56.669,-68.784,-24.364
0.538,42.139,6.796,6.799,56.650,-68.860,-24.400
0.540,42.224,6.809,6.816,56.632,-68.935,-24.435
0.541,42.307,6.822,6.834,56.617,-69.009,-24.469
0.543,42.386,6.834,6.854,56.604,-69.080,-24.502
0.544,42.462,6.843,6.874,56.594,-69.149,-24.533
0.546,42.532,6.850,6.895,56.587,-69.213,-24.560
0.547,42.596,6.853,6.917,56.582,-69.272,-24.584
0.549,42.653,6.854,6.937,56.580,-69.326,-24.602
0.550,42.703,6.853,6.955,56.581,-69.374,-24.616
0.552,42.744,6.851,6.968,56.584,-69.414,-24.622
0.553,42.777,6.849,6.975,56.590,-69.447,-24.621
0.555,42.804,6.848,6.976,56.599,-69.471,-24.612
0.556,42.830,6.848,6.967,56.610,-69.485,-24.593
0.558,42.862,6.850,6.950,56.624,-69.489,-24.564
0.559,42.904,6.849,6.924,56.640,-69.485,-24.526
0.561,42.951,6.844,6.893,56.651,-69.478,-24.481
0.562,42.999,6.831,6.856,56.653,-69.474,-24.433
0.564,43.048,6.808,6.815,56.641,-69.482,-24.386
0.565,43.107,6.772,6.771,56.610,-69.507,-24.343
0.567,43.190,6.720,6.727,56.553,-69.555,-24.306
0.568,43.310,6.653,6.680,56.467,-69.634,-24.281
0.570,43.479,6.573,6.629,56.345,-69.751,-24.270
0.571,43.707,6.481,6.573,56.182,-69.911,-24.277
0.573,44.004,6.380,6.509,55.974,-70.121,-24.305
0.574,44.381,6.271,6.437,55.715,-70.389,-24.358
0.576,44.837,6.157,6.355,55.405,-70.713,-24.437
0.577,45.355,6.040,6.261,55.054,-71.083,-24.536
0.579,45.920,5.922,6.158,54.675,-71.485,-24.652
0.580,46.514,5.809,6.052,54.278,-71.907,-24.780
0.582,47.118,5.702,5.945,53.874,-72.336,-24.915
0.583,47.716,5.607,5.841,53.475,-72.759,-25.053
0.585,48.289,5.526,5.745,53.092,-73.163,-25.188
0.586,48.820,5.464,5.660,52.736,-73.536,-25.317
0.588,49.292,5.422,5.590,52.419,-73.865,-25.435
0.589,49.686,5.398,5.534,52.151,-74.136,-25.536
0.591,49.987,5.391,5.493,51.944,-74.338,-25.617
0.592,50.188,5.398,5.467,51.801,-74.468,-25.676
0.594,50.306,5.417,5.455,51.713,-74.536,-25.714
0.595,50.357,5.447,5.458,51.669,-74.554,-25.733
0.597,50.378,5.484,5.475,51.661,-74.536,-25.737
0.598,50.427,5.527,5.505,51.678,-74.491,-25.727
0.600,50.497,5.572,5.544,51.712,-74.433,-25.706
0.601,50.574,5.616,5.587,51.751,-74.374,-25.675
0.603,50.644,5.655,5.631,51.786,-74.326,-25.638
0.604,50.698,5.687,5.672,51.807,-74.300,-25.596
0.606,50.743,5.709,5.705,51.805,-74.309,-25.552
0.607,50.822,5.716,5.728,51.770,-74.365,-25.508
0.609,50.956,5.712,5.740,51.699,-74.470,-25.466
0.610,51.138,5.700,5.746,51.598,-74.617,-25.425
0.612,51.361,5.683,5.748,51.472,-74.796,-25.386
0.613,51.613,5.666,5.749,51.328,-74.999,-25.350
0.615,51.884,5.653,5.753,51.171,-75.218,-25.316
0.616,52.164,5.647,5.763,51.008,-75.443,-25.285
0.618,52.442,5.651,5.781,50.843,-75.666,-25.258
0.619,52.709,5.664,5.805,50.684,-75.879,-25.234
0.621,52.953,5.684,5.832,50.537,-76.073,-25.214
0.622,53.165,5.707,5.860,50.406,-76.238,-25.198
0.624,53.333,5.733,5.886,50.298,-76.367,-25.186
0.625,53.457,5.758,5.908,50.215,-76.458,-25.179
0.627,53.540,5.780,5.921,50.154,-76.515,-25.175
