"T","Distance","Radius","FreeRadius","X","Y","Z"
0.000,0.000,2.588,2.588,233.427,228.449,235.795
0.001,0.140,2.639,2.639,233.454,228.519,235.677
0.003,0.282,2.691,2.691,233.483,228.589,235.558
0.004,0.424,2.745,2.745,233.516,228.659,235.438
0.005,0.569,2.801,2.801,233.555,228.730,235.318
0.007,0.717,2.859,2.859,233.602,228.801,235.197
0.008,0.870,2.922,2.922,233.659,228.872,235.074
0.009,1.028,2.988,2.988,233.728,228.945,234.951
0.011,1.195,3.060,3.060,233.810,229.018,234.825
0.012,1.372,3.136,3.136,233.909,229.091,234.698
0.013,1.562,3.218,3.218,234.025,229.166,234.568
0.015,1.766,3.304,3.304,234.161,229.242,234.436
0.016,1.987,3.395,3.395,234.319,229.319,234.302
0.017,2.223,3.490,3.490,234.496,229.397,234.166
0.019,2.471,3.590,3.590,234.687,229.474,234.030
0.020,2.725,3.692,3.692,234.889,229.550,233.895
0.021,2.980,3.798,3.798,235.095,229.624,233.764
0.023,3.232,3.905,3.905,235.301,229.695,233.638
0.024,3.476,4.011,4.011,235.503,229.762,233.518
0.025,3.707,4.111,4.111,235.695,229.824,233.406
0.027,3.919,4.205,4.205,235.873,229.880,233.305
0.028,4.108,4.288,4.288,236.031,229.929,233.215
0.029,4.268,4.358,4.358,236.166,229.971,233.138
0.031,4.394,4.412,4.412,236.271,230.004,233.077
0.032,4.485,4.450,4.450,236.345,230.028,233.030
0.033,4.545,4.473,4.473,236.393,230.044,232.998
0.035,4.580,4.485,4.485,236.418,230.054,232.977
0.036,4.594,4.488,4.488,236.426,230.060,232.966
0.037,4.600,4.486,4.486,236.422,230.062,232.963
0.039,4.613,4.481,4.481,236.409,230.063,232.966
0.040,4.631,4.476,4.476,236.393,230.063,232.973
0.041,4.648,4.474,4.474,236.378,230.065,232.983
0.043,4.662,4.477,4.477,236.370,230.068,232.992
0.044,4.673,4.484,4.484,236.372,230.076,233.000
0.045,4.696,4.496,4.496,236.390,230.089,233.005
0.047,4.738,4.512,4.512,236.427,230.109,233.004
0.048,4.800,4.534,4.534,236.483,230.135,232.998
0.049,4.877,4.560,4.560,236.554,230.166,232.987
0.051,4.968,4.592,4.592,236.637,230.201,232.974
0.052,5.069,4.628,4.628,236.729,230.239,232.957
0.053,5.176,4.668,4.668,236.826,230.278,232.939
0.055,5.286,4.711,4.711,236.927,230.318,232.919
0.056,5.396,4.753,4.753,237.028,230.358,232.899
0.057,5.503,4.795,4.795,237.125,230.396,232.880
0.059,5.602,4.833,4.833,237.216,230.431,232.862
0.060,5.691,4.867,4.867,237.298,230.463,232.846
0.061,5.767,4.896,4.896,237.367,230.490,232.833
0.063,5.828,4.917,4.917,237.423,230.512,232.823
0.064,5.876,4.934,4.934,237.468,230.530,232.815
0.065,5.913,4.945,4.945,237.502,230.543,232.811
0.067,5.940,4.952,4.952,237.527,230.553,232.808
0.068,5.960,4.957,4.957,237.545,230.560,232.807
0.069,5.973,4.959,4.959,237.558,230.564,232.808
0.071,5.982,4.960,4.960,237.566,230.566,232.810
0.072,5.988,4.960,4.960,237.572,230.567,232.813
0.073,5.994,4.960,4.960,237.576,230.566,232.816
0.075,6.000,4.960,4.960,237.582,230.566,232.819
0.076,6.008,4.960,4.960,237.588,230.565,232.822
0.077,6.018,4.962,4.962,237.598,230.564,232.825
0.079,6.031,4.965,4.965,237.611,230.565,232.827
0.080,6.046,4.970,4.970,237.626,230.566,232.828
0.081,6.064,4.977,4.977,237.644,230.569,232.829
0.083,6.083,4.986,4.986,237.662,230.574,232.829
0.084,6.104,4.998,4.998,237.682,230.581,232.828
0.085,6.127,5.010,5.010,237.703,230.590,232.827
0.087,6.151,5.023,5.023,237.724,230.602,232.824
0.088,6.177,5.037,5.037,237.745,230.617,232.820
0.089,6.205,5.050,5.050,237.765,230.635,232.815
0.091,6.235,5.063,5.063,237.784,230.657,232.809
0.092,6.267,5.075,5.075,237.802,230.683,232.802
0.093,6.302,5.087,5.087,237.819,230.713,232.794
0.095,6.339,5.097,5.097,237.834,230.746,232.785
0.096,6.378,5.107,5.107,237.849,230.780,232.777
0.097,6.418,5.117,5.117,237.864,230.817,232.769
0.099,6.458,5.128,5.128,237.879,230.854,232.763
0.100,6.499,5.139,5.139,237.894,230.892,232.759
0.101,6.539,5.151,5.151,237.909,230.929,232.757
0.103,6.579,5.164,5.164,237.925,230.965,232.758
0.104,6.618,5.177,5.177,237.943,230.999,232.763
0.105,6.656,5.190,5.190,237.962,231.031,232.772
0.107,6.694,5.203,5.203,237.983,231.060,232.786
0.108,6.733,5.214,5.214,238.006,231.085,232.804
0.109,6.771,5.223,5.223,238.029,231.107,232.825
0.111,6.808,5.230,5.230,238.052,231.125,232.847
0.112,6.843,5.234,5.234,238.074,231.140,232.870
0.113,6.873,5.235,5.235,238.092,231.151,232.892
0.115,6.899,5.235,5.235,238.108,231.158,232.911
0.116,6.918,5.233,5.233,238.119,231.162,232.926
0.117,6.928,5.232,5.232,238.124,231.162,232.935
0.119,6.933,5.232,5.232,238.123,231.158,232.937
0.120,6.946,5.234,5.234,238.114,231.150,232.930
0.121,6.973,5.240,5.240,238.096,231.139,232.914
0.123,7.014,5.248,5.248,238.070,231.124,232.886
0.124,7.064,5.258,5.258,238.039,231.106,232.851
0.125,7.116,5.265,5.265,238.012,231.088,232.810
0.126,7.166,5.266,5.266,237.992,231.072,232.767
0.128,7.211,5.258,5.258,237.987,231.058,232.725
0.129,7.253,5.238,5.238,238.004,231.049,232.688
0.130,7.305,5.201,5.201,238.047,231.046,232.658
0.132,7.384,5.145,5.145,238.123,231.051,232.638
0.133,7.501,5.070,5.070,238.239,231.065,232.633
0.134,7.664,4.983,4.982,238.400,231.091,232.645
0.136,7.883,4.888,4.888,238.612,231.130,232.677
0.137,8.163,4.794,4.793,238.882,231.183,232.732
0.138,8.502,4.705,4.704,239.205,231.250,232.810
0.140,8.888,4.627,4.627,239.570,231.328,232.906
0.141,9.307,4.569,4.569,239.965,231.414,233.019
0.142,9.749,4.533,4.533,240.379,231.504,233.144
0.144,10.199,4.518,4.519,240.799,231.596,233.277
0.145,10.646,4.519,4.519,241.214,231.688,233.416
0.146,11.077,4.529,4.530,241.612,231.775,233.556
0.148,11.480,4.543,4.544,241.982,231.855,233.695
0.149,11.842,4.555,4.556,242.311,231.926,233.828
0.150,12.152,4.560,4.560,242.589,231.983,233.952
0.152,12.398,4.550,4.550,242.804,232.025,234.064
0.153,12.575,4.525,4.524,242.950,232.050,234.161
0.154,12.694,4.486,4.486,243.039,232.062,234.240
0.156,12.768,4.440,4.439,243.081,232.063,234.300
0.157,12.807,4.389,4.388,243.090,232.059,234.339
0.158,12.828,4.339,4.339,243.076,232.052,234.353
0.160,12.854,4.294,4.294,243.054,232.046,234.343
0.161,12.897,4.259,4.258,243.033,232.045,234.305
0.162,12.965,4.237,4.237,243.027,232.053,234.238
0.164,13.067,4.231,4.233,243.048,232.074,234.140
0.165,13.216,4.245,4.247,243.107,232.110,234.008
0.166,13.424,4.279,4.282,243.217,232.166,233.841
0.168,13.701,4.337,4.340,243.388,232.245,233.638
0.169,14.043,4.419,4.422,243.615,232.345,233.403
0.170,14.437,4.529,4.531,243.888,232.460,233.143
0.172,14.871,4.668,4.668,244.197,232.588,232.866
0.173,15.332,4.836,4.833,244.530,232.723,232.578
0.174,15.807,5.025,5.019,244.879,232.861,232.287
0.176,16.282,5.225,5.216,245.232,232.999,231.999
0.177,16.745,5.426,5.415,245.578,233.131,231.722
0.178,17.183,5.618,5.607,245.909,233.253,231.463
0.180,17.582,5.791,5.781,246.213,233.362,231.228
0.181,17.929,5.934,5.930,246.480,233.452,231.026
0.182,18.211,6.039,6.043,246.699,233.520,230.862
0.184,18.426,6.103,6.119,246.869,233.564,230.738
0.185,18.580,6.133,6.163,246.993,233.588,230.650
0.186,18.682,6.138,6.183,247.078,233.595,230.593
0.188,18.742,6.124,6.184,247.129,233.587,230.562
0.189,18.773,6.100,6.172,247.150,233.568,230.552
0.190,18.801,6.073,6.154,247.149,233.541,230.559
0.192,18.843,6.051,6.137,247.130,233.508,230.578
0.193,18.896,6.041,6.125,247.099,233.473,230.603
0.194,18.954,6.042,6.120,247.061,233.439,230.631
0.196,19.010,6.051,6.120,247.022,233.409,230.655
0.197,19.055,6.067,6.123,246.986,233.386,230.673
0.198,19.086,6.086,6.129,246.960,233.373,230.679
0.200,19.106,6.106,6.135,246.941,233.367,230.675
0.201,19.123,6.124,6.141,246.929,233.369,230.662
0.202,19.145,6.138,6.146,246.924,233.377,230.643
0.204,19.173,6.147,6.147,246.924,233.390,230.618
0.205,19.207,6.150,6.147,246.927,233.407,230.589
0.206,19.244,6.150,6.146,246.934,233.426,230.557
0.208,19.283,6.148,6.143,246.943,233.446,230.525
0.209,19.321,6.144,6.140,246.952,233.467,230.494
0.210,19.357,6.140,6.137,246.962,233.486,230.466
0.212,19.388,6.136,6.135,246.971,233.503,230.442
0.213,19.412,6.134,6.135,246.977,233.517,230.423
0.214,19.429,6.133,6.135,246.982,233.527,230.410
0.216,19.440,6.134,6.136,246.985,233.534,230.402
0.217,19.447,6.136,6.138,246.986,233.539,230.398
0.218,19.449,6.138,6.139,246.986,233.541,230.396
0.220,19.450,6.140,6.141,246.986,233.542,230.397
0.221,19.452,6.141,6.142,246.986,233.541,230.399
0.222,19.455,6.141,6.141,246.986,233.540,230.401
0.224,19.458,6.141,6.140,246.986,233.538,230.403
0.225,19.460,6.139,6.138,246.987,233.537,230.403
0.226,19.463,6.137,6.136,246.990,233.536,230.401
0.228,19.470,6.135,6.133,246.994,233.536,230.396
0.229,19.481,6.134,6.132,247.001,233.538,230.387
0.230,19.496,6.133,6.132,247.009,233.542,230.375
0.232,19.516,6.135,6.134,247.019,233.548,230.359
0.233,19.540,6.138,6.138,247.031,233.558,230.340
0.234,19.569,6.143,6.145,247.046,233.571,230.319
0.236,19.603,6.151,6.154,247.062,233.588,230.294
0.237,19.642,6.160,6.164,247.081,233.609,230.267
0.238,19.687,6.172,6.176,247.102,233.635,230.238
0.240,19.737,6.184,6.188,247.125,233.667,230.206
0.241,19.793,6.199,6.201,247.150,233.704,230.173
0.242,19.856,6.214,6.214,247.178,233.748,230.137
0.244,19.926,6.231,6.228,247.208,233.798,230.100
0.245,20.001,6.247,6.240,247.241,233.854,230.061
0.246,20.083,6.262,6.250,247.278,233.914,230.019
0.248,20.170,6.273,6.259,247.320,233.976,229.974
0.249,20.262,6.280,6.265,247.367,234.038,229.926
0.250,20.359,6.280,6.268,247.421,234.100,229.875
0.252,20.461,6.273,6.266,247.482,234.160,229.818
0.253,20.569,6.256,6.260,247.550,234.216,229.758
0.254,20.682,6.229,6.249,247.628,234.266,229.692
0.256,20.803,6.195,6.233,247.715,234.309,229.620
0.257,20.933,6.154,6.212,247.813,234.344,229.542
0.258,21.073,6.107,6.186,247.922,234.369,229.458
0.260,21.223,6.057,6.154,248.041,234.384,229.367
0.261,21.383,6.005,6.118,248.168,234.390,229.271
0.262,21.549,5.952,6.077,248.301,234.388,229.171
0.264,21.721,5.900,6.030,248.438,234.379,229.066
0.265,21.896,5.850,5.980,248.575,234.366,228.959
0.266,22.072,5.801,5.926,248.712,234.348,228.849
0.268,22.247,5.755,5.870,248.844,234.327,228.738
0.269,22.417,5.710,5.813,248.972,234.304,228.627
0.270,22.582,5.667,5.756,249.091,234.281,228.516
0.272,22.739,5.627,5.701,249.200,234.258,228.405
0.273,22.885,5.590,5.647,249.296,234.237,228.297
0.274,23.020,5.555,5.597,249.378,234.218,228.191
0.276,23.146,5.523,5.551,249.449,234.203,228.089
0.277,23.263,5.494,5.509,249.510,234.191,227.989
0.278,23.374,5.467,5.472,249.565,234.182,227.893
0.280,23.478,5.442,5.440,249.615,234.178,227.802
0.281,23.578,5.420,5.415,249.663,234.177,227.715
0.282,23.674,5.399,5.397,249.712,234.181,227.633
0.284,23.766,5.381,5.386,249.764,234.190,227.556
0.285,23.859,5.363,5.381,249.820,234.203,227.484
0.286,23.952,5.347,5.379,249.885,234.222,227.419
0.288,24.051,5.329,5.378,249.959,234.247,227.360
0.289,24.156,5.311,5.376,250.046,234.277,227.308
0.290,24.269,5.291,5.368,250.143,234.312,227.262
0.292,24.388,5.267,5.354,250.249,234.350,227.222
0.293,24.511,5.240,5.330,250.359,234.391,227.189
0.294,24.634,5.208,5.294,250.472,234.433,227.161
0.296,24.756,5.173,5.250,250.584,234.475,227.138
0.297,24.873,5.137,5.200,250.693,234.516,227.120
0.298,24.984,5.100,5.147,250.795,234.554,227.107
0.300,25.084,5.065,5.096,250.889,234.588,227.098
0.301,25.171,5.033,5.049,250.971,234.617,227.093
0.302,25.242,5.005,5.010,251.038,234.641,227.091
0.304,25.294,4.983,4.981,251.088,234.656,227.093
0.305,25.328,4.968,4.965,251.120,234.664,227.098
0.306,25.347,4.957,4.958,251.138,234.667,227.104
0.308,25.358,4.950,4.958,251.145,234.666,227.112
0.309,25.366,4.946,4.962,251.145,234.662,227.120
0.310,25.376,4.944,4.968,251.140,234.658,227.127
0.312,25.384,4.942,4.973,251.135,234.655,227.133
0.313,25.389,4.939,4.975,251.132,234.655,227.137
0.314,25.395,4.933,4.971,251.135,234.660,227.137
0.316,25.412,4.926,4.962,251.148,234.672,227.134
0.317,25.445,4.915,4.947,251.173,234.691,227.126
0.318,25.498,4.902,4.927,251.215,234.721,227.112
0.320,25.573,4.885,4.903,251.275,234.762,227.093
0.321,25.667,4.864,4.874,251.350,234.812,227.068
0.322,25.774,4.839,4.843,251.437,234.868,227.040
0.324,25.891,4.810,4.809,251.532,234.929,227.009
0.325,26.013,4.777,4.773,251.632,234.992,226.977
0.326,26.136,4.742,4.737,251.732,235.054,226.945
0.328,26.254,4.707,4.701,251.830,235.113,226.914
0.329,26.363,4.673,4.668,251.921,235.167,226.886
0.330,26.460,4.642,4.638,252.001,235.214,226.862
0.332,26.538,4.616,4.614,252.068,235.250,226.843
0.333,26.594,4.597,4.596,252.117,235.274,226.831
0.334,26.624,4.586,4.587,252.146,235.284,226.827
0.336,26.634,4.582,4.584,252.155,235.280,226.829
0.337,26.650,4.584,4.586,252.150,235.267,226.835
0.338,26.675,4.588,4.590,252.134,235.249,226.844
0.340,26.704,4.592,4.594,252.114,235.229,226.852
0.341,26.732,4.594,4.595,252.094,235.212,226.858
0.342,26.751,4.592,4.592,252.078,235.201,226.858
0.344,26.761,4.582,4.582,252.071,235.200,226.852
0.345,26.783,4.563,4.562,252.078,235.213,226.836
0.346,26.832,4.535,4.534,252.104,235.243,226.808
0.348,26.915,4.500,4.499,252.154,235.296,226.766
0.349,27.040,4.459,4.457,252.232,235.374,226.707
0.350,27.209,4.411,4.410,252.340,235.479,226.632
0.352,27.418,4.359,4.358,252.477,235.610,226.542
0.353,27.664,4.303,4.303,252.639,235.764,226.441
0.354,27.942,4.245,4.245,252.825,235.939,226.332
0.356,28.248,4.186,4.188,253.032,236.134,226.218
0.357,28.577,4.133,4.135,253.257,236.345,226.103
0.358,28.926,4.089,4.093,253.497,236.571,225.988
0.360,29.291,4.060,4.064,253.750,236.809,225.878
0.361,29.668,4.051,4.055,254.014,237.058,225.775
0.362,30.053,4.067,4.070,254.286,237.315,225.682
0.364,30.444,4.112,4.113,254.563,237.578,225.603
0.365,30.835,4.191,4.188,254.843,237.845,225.540
0.366,31.225,4.298,4.291,255.122,238.112,225.492
0.368,31.610,4.427,4.415,255.399,238.378,225.458
0.369,31.986,4.569,4.555,255.669,238.638,225.435
0.370,32.348,4.719,4.703,255.930,238.890,225.423
0.372,32.694,4.868,4.855,256.178,239.130,225.419
0.373,33.019,5.009,5.002,256.411,239.356,225.421
0.374,33.318,5.136,5.140,256.626,239.565,225.428
0.375,33.588,5.244,5.264,256.819,239.753,225.438
0.377,33.823,5.334,5.373,256.987,239.917,225.449
0.378,34.020,5.408,5.467,257.128,240.055,225.460
0.379,34.175,5.467,5.546,257.238,240.163,225.468
0.381,34.288,5.512,5.611,257.318,240.242,225.474
0.382,34.363,5.545,5.659,257.372,240.295,225.477
0.383,34.407,5.568,5.693,257.402,240.326,225.477
0.385,34.423,5.581,5.710,257.413,240.338,225.476
0.386,34.429,5.587,5.714,257.408,240.334,225.473
0.387,34.453,5.587,5.707,257.391,240.320,225.469
0.389,34.488,5.583,5.692,257.365,240.297,225.464
0.390,34.530,5.576,5.673,257.333,240.269,225.458
0.391,34.575,5.569,5.651,257.300,240.240,225.452
0.393,34.616,5.564,5.631,257.268,240.214,225.446
0.394,34.650,5.561,5.615,257.242,240.194,225.440
0.395,34.672,5.563,5.604,257.224,240.182,225.434
0.397,34.685,5.568,5.600,257.213,240.178,225.429
0.398,34.692,5.575,5.600,257.209,240.181,225.425
0.399,34.702,5.585,5.603,257.210,240.189,225.420
0.401,34.717,5.595,5.610,257.216,240.203,225.415
0.402,34.738,5.606,5.619,257.227,240.220,225.410
0.403,34.763,5.615,5.630,257.241,240.240,225.405
0.405,34.791,5.623,5.641,257.257,240.261,225.400
0.406,34.820,5.628,5.652,257.275,240.284,225.393
0.407,34.850,5.632,5.663,257.294,240.306,225.386
0.409,34.880,5.635,5.673,257.312,240.328,225.378
0.410,34.907,5.637,5.682,257.330,240.347,225.369
0.411,34.933,5.639,5.691,257.347,240.364,225.359
0.413,34.958,5.641,5.698,257.363,240.379,225.348
0.414,34.981,5.643,5.704,257.378,240.392,225.337
0.415,35.002,5.646,5.708,257.391,240.404,225.325
0.417,35.023,5.649,5.711,257.404,240.416,225.313
0.418,35.042,5.653,5.713,257.415,240.426,225.302
0.419,35.060,5.656,5.714,257.425,240.437,225.291
0.421,35.077,5.660,5.715,257.434,240.447,225.280
0.422,35.094,5.663,5.718,257.441,240.458,225.270
0.423,35.109,5.666,5.721,257.447,240.469,225.261
0.425,35.125,5.668,5.725,257.452,240.481,225.254
0.426,35.140,5.669,5.731,257.456,240.495,225.247
0.427,35.158,5.669,5.739,257.461,240.511,225.241
0.429,35.178,5.669,5.748,257.467,240.528,225.235
0.430,35.202,5.669,5.757,257.478,240.549,225.227
0.431,35.232,5.668,5.768,257.493,240.573,225.218
0.433,35.270,5.667,5.778,257.515,240.602,225.206
0.434,35.317,5.667,5.788,257.545,240.634,225.191
0.435,35.375,5.668,5.798,257.585,240.672,225.172
0.437,35.445,5.669,5.808,257.635,240.715,225.149
0.438,35.530,5.672,5.819,257.698,240.765,225.120
0.439,35.631,5.677,5.829,257.775,240.821,225.085
0.441,35.750,5.685,5.840,257.866,240.883,225.044
0.442,35.883,5.696,5.852,257.971,240.952,224.996
0.443,36.030,5.711,5.865,258.087,241.024,224.943
0.445,36.187,5.730,5.880,258.212,241.099,224.885
0.446,36.353,5.753,5.895,258.345,241.175,224.821
0.447,36.524,5.780,5.912,258.482,241.251,224.753
0.449,36.698,5.808,5.927,258.623,241.324,224.681
0.450,36.874,5.836,5.942,258.765,241.394,224.606
0.451,37.048,5.862,5.954,258.906,241.460,224.527
0.453,37.218,5.886,5.963,259.044,241.518,224.446
0.454,37.383,5.904,5.969,259.177,241.569,224.363
0.455,37.541,5.917,5.969,259.304,241.610,224.278
0.457,37.691,5.923,5.965,259.423,241.642,224.193
0.458,37.835,5.926,5.959,259.536,241.668,224.109
0.459,37.971,5.927,5.952,259.645,241.688,224.028
0.461,38.101,5.928,5.946,259.749,241.706,223.952
0.462,38.225,5.931,5.942,259.850,241.722,223.884
0.463,38.342,5.937,5.942,259.950,241.739,223.824
0.465,38.454,5.948,5.948,260.048,241.759,223.774
0.466,38.562,5.966,5.960,260.146,241.783,223.737
0.467,38.668,5.990,5.980,260.246,241.813,223.714
0.469,38.777,6.018,6.005,260.348,241.852,223.708
0.470,38.894,6.051,6.036,260.452,241.902,223.719
0.471,39.021,6.087,6.072,260.561,241.962,223.748
0.473,39.159,6.124,6.112,260.672,242.031,223.793
0.474,39.308,6.162,6.157,260.785,242.107,223.852
0.475,39.464,6.200,6.205,260.900,242.186,223.921
0.477,39.625,6.237,6.256,261.015,242.268,223.998
0.478,39.788,6.273,6.307,261.129,242.350,224.081
0.479,39.951,6.306,6.356,261.243,242.429,224.167
0.481,40.110,6.336,6.402,261.354,242.503,224.254
0.482,40.263,6.362,6.443,261.463,242.571,224.338
0.483,40.407,6.384,6.476,261.568,242.628,224.417
0.485,40.539,6.401,6.501,261.668,242.674,224.489
0.486,40.657,6.413,6.514,261.764,242.707,224.551
0.487,40.765,6.420,6.519,261.856,242.728,224.604
0.489,40.866,6.422,6.516,261.945,242.739,224.649
0.490,40.962,6.421,6.510,262.034,242.743,224.686
0.491,41.056,6.416,6.501,262.123,242.744,224.716
0.493,41.152,6.410,6.493,262.215,242.742,224.741
0.494,41.250,6.402,6.488,262.311,242.742,224.762
0.495,41.353,6.393,6.488,262.412,242.745,224.779
0.497,41.462,6.385,6.494,262.521,242.754,224.794
0.498,41.582,6.377,6.506,262.638,242.773,224.808
0.499,41.714,6.371,6.522,262.766,242.802,224.821
0.501,41.860,6.368,6.541,262.905,242.845,224.835
0.502,42.021,6.370,6.562,263.055,242.902,224.849
0.503,42.194,6.376,6.582,263.213,242.970,224.864
0.505,42.373,6.388,6.602,263.375,243.047,224.879
0.506,42.556,6.408,6.620,263.537,243.129,224.894
0.507,42.737,6.433,6.635,263.696,243.214,224.907
0.509,42.912,6.463,6.647,263.848,243.300,224.919
0.510,43.077,6.494,6.656,263.991,243.383,224.929
0.511,43.228,6.527,6.663,264.120,243.460,224.937
0.513,43.360,6.558,6.666,264.232,243.530,224.942
0.514,43.469,6.587,6.666,264.323,243.590,224.944
0.515,43.550,6.610,6.663,264.390,243.636,224.941
0.517,43.603,6.627,6.657,264.432,243.667,224.935
0.518,43.631,6.639,6.649,264.452,243.685,224.927
0.519,43.643,6.645,6.641,264.454,243.692,224.916
0.521,43.659,6.647,6.633,264.443,243.690,224.906
0.522,43.682,6.644,6.626,264.423,243.683,224.897
0.523,43.709,6.639,6.623,264.399,243.671,224.890
0.525,43.736,6.630,6.624,264.376,243.657,224.886
0.526,43.758,6.620,6.630,264.358,243.644,224.888
0.527,43.774,6.608,6.641,264.349,243.634,224.896
0.529,43.791,6.596,6.655,264.354,243.629,224.911
0.530,43.825,6.584,6.670,264.378,243.631,224.936
0.531,43.883,6.573,6.686,264.424,243.643,224.970
0.533,43.965,6.564,6.699,264.490,243.664,225.013
0.534,44.066,6.559,6.709,264.573,243.692,225.064
0.535,44.181,6.557,6.714,264.666,243.727,225.120
0.537,44.305,6.560,6.712,264.766,243.768,225.182
0.538,44.433,6.566,6.705,264.868,243.811,225.246
0.539,44.560,6.573,6.698,264.967,243.858,225.311
0.541,44.681,6.581,6.692,265.058,243.905,225.375
0.542,44.792,6.586,6.692,265.136,243.951,225.438
0.543,44.888,6.588,6.700,265.198,243.996,225.496
