"T","Distance","Radius","FreeRadius","X","Y","Z"
0.000,0.000,2.478,2.478,220.326,191.767,182.618
0.001,0.044,2.499,2.499,220.302,191.801,182.630
0.002,0.086,2.520,2.520,220.280,191.835,182.643
0.004,0.126,2.539,2.539,220.262,191.868,182.655
0.005,0.162,2.555,2.555,220.250,191.900,182.668
0.006,0.196,2.569,2.569,220.245,191.931,182.681
0.007,0.228,2.579,2.579,220.249,191.960,182.694
0.008,0.262,2.584,2.584,220.265,191.987,182.707
0.010,0.302,2.584,2.584,220.293,192.012,182.721
0.011,0.353,2.577,2.577,220.337,192.034,182.734
0.012,0.418,2.566,2.566,220.398,192.052,182.748
0.013,0.500,2.550,2.550,220.477,192.068,182.762
0.015,0.601,2.532,2.532,220.576,192.079,182.776
0.016,0.719,2.513,2.513,220.693,192.087,182.790
0.017,0.851,2.494,2.494,220.824,192.092,182.804
0.018,0.993,2.477,2.477,220.965,192.093,182.817
0.019,1.141,2.463,2.463,221.113,192.091,182.828
0.021,1.291,2.455,2.455,221.263,192.085,182.838
0.022,1.441,2.452,2.452,221.412,192.077,182.846
0.023,1.585,2.453,2.453,221.556,192.067,182.851
0.024,1.721,2.456,2.456,221.692,192.053,182.853
0.025,1.846,2.462,2.462,221.815,192.038,182.851
0.027,1.954,2.468,2.468,221.922,192.020,182.846
0.028,2.044,2.474,2.474,222.009,192.000,182.836
0.029,2.119,2.477,2.477,222.079,191.977,182.823
0.030,2.182,2.477,2.477,222.135,191.953,182.808
0.032,2.239,2.473,2.473,222.183,191.927,182.791
0.033,2.293,2.467,2.467,222.226,191.898,182.774
0.034,2.349,2.461,2.461,222.269,191.866,182.757
0.035,2.409,2.456,2.456,222.316,191.832,182.743
0.036,2.477,2.456,2.456,222.372,191.796,182.732
0.038,2.557,2.463,2.463,222.442,191.756,182.725
0.039,2.655,2.478,2.478,222.530,191.714,182.724
0.040,2.774,2.505,2.505,222.640,191.669,182.729
0.041,2.919,2.544,2.544,222.776,191.621,182.742
0.042,3.091,2.595,2.595,222.939,191.570,182.762
0.044,3.283,2.655,2.655,223.122,191.517,182.789
0.045,3.492,2.723,2.723,223.321,191.463,182.821
0.046,3.712,2.794,2.794,223.531,191.409,182.858
0.047,3.937,2.867,2.867,223.746,191.355,182.897
0.048,4.163,2.939,2.939,223.961,191.302,182.938
0.050,4.383,3.007,3.007,224.172,191.252,182.980
0.051,4.593,3.069,3.069,224.372,191.204,183.022
0.052,4.788,3.123,3.123,224.558,191.159,183.062
0.053,4.962,3.169,3.169,224.723,191.119,183.100
0.055,5.110,3.208,3.208,224.863,191.084,183.134
0.056,5.230,3.239,3.239,224.975,191.055,183.163
0.057,5.324,3.263,3.263,225.062,191.030,183.188
0.058,5.394,3.281,3.281,225.126,191.009,183.208
0.059,5.443,3.292,3.292,225.169,190.992,183.223
0.061,5.473,3.297,3.297,225.194,190.978,183.233
0.062,5.488,3.297,3.297,225.202,190.966,183.238
0.063,5.499,3.292,3.292,225.197,190.957,183.236
0.064,5.520,3.284,3.284,225.179,190.948,183.230
0.065,5.551,3.276,3.276,225.152,190.940,183.217
0.067,5.591,3.267,3.267,225.118,190.932,183.198
0.068,5.638,3.261,3.261,225.079,190.924,183.172
0.069,5.690,3.258,3.258,225.038,190.914,183.141
0.070,5.744,3.261,3.261,224.997,190.905,183.109
0.072,5.793,3.270,3.270,224.960,190.896,183.077
0.073,5.834,3.285,3.285,224.930,190.888,183.051
0.074,5.862,3.304,3.304,224.909,190.881,183.033
0.075,5.873,3.325,3.325,224.902,190.877,183.027
0.076,5.886,3.345,3.345,224.911,190.875,183.036
0.078,5.925,3.363,3.363,224.939,190.876,183.064
0.079,5.997,3.376,3.376,224.990,190.881,183.115
0.080,6.106,3.382,3.382,225.066,190.891,183.192
0.081,6.255,3.380,3.380,225.170,190.906,183.298
0.082,6.448,3.369,3.369,225.304,190.926,183.435
0.084,6.677,3.351,3.351,225.464,190.950,183.598
0.085,6.934,3.328,3.328,225.642,190.978,183.780
0.086,7.211,3.304,3.304,225.834,191.008,183.977
0.087,7.499,3.280,3.280,226.034,191.039,184.183
0.088,7.791,3.260,3.260,226.236,191.071,184.390
0.090,8.077,3.245,3.245,226.435,191.102,184.594
0.091,8.349,3.239,3.239,226.624,191.131,184.787
0.092,8.600,3.242,3.242,226.799,191.158,184.966
0.093,8.821,3.255,3.255,226.953,191.180,185.122
0.095,9.003,3.274,3.274,227.080,191.198,185.251
0.096,9.141,3.298,3.298,227.177,191.210,185.349
0.097,9.237,3.325,3.325,227.245,191.217,185.416
0.098,9.298,3.353,3.353,227.288,191.220,185.459
0.099,9.330,3.380,3.380,227.311,191.220,185.482
0.101,9.338,3.404,3.404,227.315,191.217,185.488
0.102,9.349,3.423,3.423,227.307,191.213,185.483
0.103,9.371,3.438,3.438,227.289,191.209,185.472
0.104,9.399,3.449,3.449,227.264,191.206,185.458
0.105,9.428,3.458,3.458,227.238,191.203,185.446
0.107,9.453,3.467,3.467,227.213,191.203,185.441
0.108,9.474,3.475,3.475,227.194,191.207,185.447
0.109,9.499,3.486,3.486,227.183,191.214,185.468
0.110,9.536,3.500,3.500,227.183,191.225,185.504
0.112,9.588,3.518,3.518,227.192,191.240,185.552
0.113,9.652,3.542,3.542,227.212,191.256,185.611
0.114,9.728,3.568,3.568,227.242,191.274,185.679
0.115,9.813,3.596,3.596,227.281,191.293,185.752
0.116,9.907,3.624,3.624,227.331,191.313,185.829
0.118,10.008,3.651,3.651,227.391,191.332,185.908
0.119,10.115,3.675,3.675,227.462,191.349,185.987
0.120,10.227,3.695,3.695,227.542,191.364,186.063
0.121,10.343,3.708,3.708,227.633,191.377,186.135
0.122,10.464,3.714,3.715,227.734,191.386,186.199
0.124,10.588,3.715,3.715,227.844,191.392,186.257
0.125,10.717,3.711,3.711,227.961,191.394,186.309
0.126,10.848,3.705,3.705,228.084,191.393,186.357
0.127,10.982,3.698,3.698,228.210,191.389,186.401
0.128,11.117,3.692,3.692,228.338,191.381,186.443
0.130,11.251,3.688,3.688,228.466,191.371,186.483
0.131,11.384,3.688,3.688,228.592,191.357,186.524
0.132,11.514,3.694,3.694,228.713,191.341,186.565
0.133,11.639,3.706,3.706,228.830,191.322,186.609
0.135,11.760,3.723,3.723,228.938,191.301,186.656
0.136,11.874,3.745,3.745,229.037,191.277,186.708
0.137,11.983,3.770,3.770,229.127,191.252,186.764
0.138,12.088,3.799,3.799,229.209,191.225,186.824
0.139,12.189,3.829,3.829,229.284,191.199,186.886
0.141,12.287,3.861,3.861,229.354,191.172,186.950
0.142,12.382,3.894,3.894,229.421,191.148,187.014
0.143,12.476,3.927,3.927,229.485,191.126,187.077
0.144,12.567,3.959,3.959,229.549,191.107,187.139
0.145,12.656,3.991,3.991,229.614,191.092,187.198
0.147,12.744,4.021,4.021,229.682,191.082,187.254
0.148,12.832,4.049,4.049,229.754,191.078,187.304
0.149,12.921,4.074,4.075,229.831,191.080,187.349
0.150,13.013,4.097,4.097,229.914,191.089,187.389
0.152,13.109,4.116,4.116,230.001,191.104,187.425
0.153,13.207,4.131,4.131,230.091,191.124,187.460
0.154,13.307,4.143,4.142,230.181,191.146,187.495
0.155,13.408,4.152,4.151,230.272,191.171,187.534
0.156,13.510,4.160,4.159,230.360,191.197,187.578
0.158,13.612,4.168,4.166,230.444,191.223,187.630
0.159,13.715,4.175,4.174,230.523,191.247,187.691
0.160,13.819,4.184,4.183,230.594,191.270,187.764
0.161,13.928,4.194,4.194,230.657,191.289,187.850
0.162,14.045,4.207,4.208,230.710,191.303,187.953
0.164,14.171,4.223,4.224,230.751,191.312,188.072
0.165,14.308,4.239,4.242,230.783,191.316,188.205
0.166,14.451,4.256,4.260,230.806,191.317,188.347
0.167,14.599,4.272,4.277,230.823,191.315,188.494
0.168,14.749,4.287,4.292,230.835,191.311,188.643
0.170,14.895,4.298,4.302,230.843,191.305,188.789
0.171,15.036,4.306,4.308,230.849,191.299,188.929
0.172,15.167,4.309,4.308,230.855,191.294,189.060
0.173,15.283,4.306,4.301,230.862,191.289,189.176
0.175,15.383,4.298,4.288,230.871,191.286,189.275
0.176,15.461,4.286,4.272,230.884,191.286,189.352
0.177,15.518,4.270,4.252,230.903,191.288,189.406
0.178,15.560,4.250,4.232,230.928,191.292,189.440
0.179,15.597,4.226,4.210,230.959,191.295,189.459
0.181,15.637,4.201,4.190,230.997,191.295,189.468
0.182,15.683,4.172,4.172,231.043,191.289,189.472
0.183,15.738,4.142,4.158,231.097,191.276,189.476
0.184,15.805,4.111,4.146,231.159,191.253,189.485
0.185,15.886,4.080,4.136,231.230,191.218,189.503
0.187,15.986,4.049,4.127,231.310,191.169,189.536
0.188,16.109,4.019,4.119,231.400,191.105,189.589
0.189,16.260,3.991,4.110,231.501,191.022,189.666
0.190,16.444,3.965,4.100,231.612,190.919,189.772
0.192,16.660,3.943,4.089,231.731,190.798,189.903
0.193,16.901,3.925,4.076,231.857,190.662,190.057
0.194,17.163,3.911,4.060,231.988,190.514,190.230
0.195,17.440,3.902,4.045,232.121,190.357,190.416
0.196,17.729,3.899,4.032,232.254,190.193,190.613
0.198,18.022,3.901,4.021,232.385,190.026,190.816
0.199,18.316,3.908,4.016,232.512,189.859,191.021
0.200,18.604,3.922,4.018,232.632,189.694,191.224
0.201,18.882,3.942,4.028,232.744,189.534,191.422
0.202,19.144,3.969,4.048,232.845,189.382,191.610
0.204,19.385,4.003,4.078,232.934,189.241,191.784
0.205,19.605,4.042,4.117,233.010,189.112,191.945
0.206,19.805,4.086,4.162,233.075,188.992,192.092
0.207,19.988,4.134,4.212,233.130,188.882,192.228
0.208,20.155,4.184,4.264,233.177,188.781,192.351
0.210,20.307,4.236,4.318,233.216,188.687,192.464
0.211,20.446,4.289,4.370,233.250,188.600,192.567
0.212,20.573,4.341,4.418,233.279,188.519,192.661
0.213,20.691,4.392,4.462,233.305,188.443,192.746
0.215,20.800,4.442,4.502,233.329,188.371,192.825
0.216,20.902,4.489,4.538,233.353,188.302,192.896
0.217,20.998,4.534,4.570,233.377,188.236,192.962
0.218,21.089,4.576,4.601,233.403,188.172,193.023
0.219,21.176,4.615,4.630,233.429,188.111,193.078
0.221,21.258,4.650,4.658,233.456,188.052,193.128
0.222,21.335,4.682,4.686,233.484,187.997,193.174
0.223,21.407,4.709,4.715,233.512,187.945,193.215
0.224,21.475,4.732,4.744,233.541,187.896,193.252
0.225,21.538,4.751,4.772,233.571,187.851,193.285
0.227,21.596,4.767,4.800,233.600,187.810,193.315
0.228,21.650,4.780,4.827,233.629,187.774,193.340
0.229,21.699,4.790,4.851,233.659,187.742,193.362
0.230,21.743,4.797,4.872,233.688,187.714,193.381
0.232,21.782,4.802,4.890,233.716,187.692,193.398
0.233,21.818,4.806,4.903,233.743,187.674,193.411
0.234,21.848,4.808,4.912,233.767,187.660,193.423
0.235,21.874,4.809,4.916,233.789,187.651,193.434
0.236,21.894,4.808,4.917,233.806,187.646,193.443
0.238,21.910,4.807,4.915,233.819,187.645,193.452
0.239,21.922,4.806,4.910,233.827,187.647,193.461
0.240,21.933,4.804,4.903,233.828,187.653,193.470
0.241,21.948,4.802,4.893,233.822,187.663,193.480
0.242,21.970,4.800,4.883,233.808,187.676,193.491
0.244,22.000,4.798,4.871,233.786,187.692,193.504
0.245,22.038,4.795,4.858,233.756,187.710,193.519
0.246,22.079,4.792,4.844,233.723,187.728,193.534
0.247,22.119,4.787,4.828,233.690,187.746,193.549
0.248,22.153,4.780,4.810,233.662,187.760,193.563
0.250,22.177,4.770,4.789,233.644,187.769,193.574
0.251,22.186,4.756,4.766,233.639,187.771,193.582
0.252,22.201,4.738,4.740,233.651,187.765,193.585
0.253,22.239,4.715,4.711,233.686,187.748,193.582
0.255,22.307,4.687,4.678,233.747,187.718,193.573
0.256,22.410,4.655,4.644,233.838,187.675,193.557
0.257,22.551,4.619,4.609,233.964,187.615,193.531
0.258,22.734,4.580,4.572,234.125,187.538,193.497
0.259,22.950,4.539,4.536,234.318,187.448,193.454
0.261,23.193,4.496,4.500,234.533,187.347,193.405
0.262,23.456,4.451,4.465,234.766,187.239,193.351
0.263,23.729,4.405,4.432,235.008,187.126,193.293
0.264,24.007,4.360,4.402,235.255,187.012,193.232
0.265,24.282,4.314,4.375,235.497,186.900,193.170
0.267,24.545,4.271,4.351,235.730,186.794,193.107
0.268,24.790,4.231,4.331,235.946,186.696,193.047
0.269,25.009,4.195,4.314,236.139,186.609,192.989
0.270,25.195,4.163,4.301,236.301,186.538,192.935
0.272,25.342,4.138,4.293,236.429,186.483,192.887
0.273,25.453,4.119,4.290,236.524,186.444,192.843
0.274,25.536,4.108,4.292,236.591,186.418,192.803
0.275,25.594,4.104,4.297,236.633,186.402,192.766
0.276,25.636,4.104,4.304,236.656,186.394,192.732
0.278,25.670,4.108,4.311,236.663,186.391,192.699
0.279,25.702,4.114,4.317,236.658,186.391,192.667
0.280,25.735,4.120,4.320,236.646,186.391,192.636
0.281,25.771,4.125,4.317,236.631,186.389,192.604
0.282,25.808,4.127,4.309,236.616,186.382,192.571
0.284,25.847,4.126,4.292,236.607,186.368,192.535
0.285,25.892,4.119,4.269,236.606,186.345,192.497
0.286,25.943,4.109,4.240,236.613,186.313,192.457
0.287,26.002,4.096,4.208,236.629,186.275,192.417
0.288,26.065,4.080,4.174,236.652,186.231,192.377
0.290,26.133,4.061,4.142,236.680,186.183,192.338
0.291,26.203,4.040,4.113,236.714,186.133,192.302
0.292,26.274,4.018,4.089,236.752,186.083,192.269
0.293,26.344,3.994,4.072,236.793,186.034,192.242
0.295,26.410,3.970,4.063,236.836,185.988,192.220
0.296,26.473,3.945,4.061,236.880,185.946,192.205
0.297,26.530,3.918,4.065,236.925,185.911,192.199
0.298,26.582,3.890,4.073,236.969,185.883,192.201
0.299,26.632,3.858,4.084,237.013,185.862,192.210
0.301,26.682,3.824,4.097,237.059,185.844,192.222
0.302,26.735,3.787,4.111,237.107,185.828,192.232
0.303,26.790,3.747,4.124,237.160,185.810,192.237
0.304,26.852,3.702,4.135,237.217,185.789,192.232
0.305,26.925,3.654,4.146,237.282,185.761,192.214
0.307,27.014,3.603,4.156,237.355,185.723,192.177
0.308,27.126,3.550,4.166,237.437,185.674,192.119
0.309,27.266,3.494,4.177,237.530,185.611,192.035
0.310,27.440,3.438,4.189,237.635,185.531,191.922
0.312,27.654,3.380,4.204,237.753,185.432,191.775
0.313,27.905,3.322,4.222,237.884,185.315,191.595
0.314,28.186,3.264,4.243,238.025,185.183,191.391
0.315,28.490,3.207,4.268,238.172,185.041,191.167
0.316,28.808,3.152,4.295,238.325,184.891,190.930
0.318,29.134,3.100,4.325,238.478,184.739,190.687
0.319,29.459,3.053,4.357,238.631,184.587,190.443
0.320,29.776,3.010,4.389,238.781,184.440,190.205
0.321,30.077,2.973,4.422,238.923,184.301,189.980
0.322,30.353,2.944,4.455,239.057,184.174,189.774
0.324,30.598,2.923,4.487,239.179,184.064,189.593
0.325,30.804,2.910,4.518,239.287,183.972,189.444
0.326,30.968,2.904,4.547,239.379,183.902,189.327
0.327,31.095,2.905,4.574,239.457,183.850,189.241
0.328,31.190,2.910,4.600,239.522,183.815,189.182
0.330,31.257,2.918,4.623,239.575,183.794,189.146
0.331,31.302,2.929,4.643,239.616,183.785,189.130
0.332,31.333,2.941,4.661,239.647,183.786,189.130
0.333,31.360,2.952,4.676,239.669,183.794,189.143
0.335,31.390,2.963,4.688,239.683,183.807,189.166
0.336,31.424,2.971,4.698,239.690,183.823,189.195
0.337,31.459,2.978,4.707,239.691,183.840,189.227
0.338,31.494,2.982,4.715,239.687,183.855,189.258
0.339,31.525,2.985,4.724,239.681,183.867,189.285
0.341,31.549,2.984,4.734,239.674,183.874,189.307
0.342,31.565,2.982,4.746,239.671,183.875,189.322
0.343,31.574,2.976,4.762,239.673,183.870,189.329
0.344,31.592,2.968,4.783,239.686,183.857,189.327
0.345,31.628,2.958,4.805,239.711,183.835,189.312
0.347,31.687,2.951,4.828,239.751,183.803,189.285
0.348,31.772,2.949,4.847,239.811,183.759,189.243
0.349,31.886,2.955,4.860,239.892,183.704,189.185
0.350,32.034,2.973,4.864,239.999,183.634,189.109
0.352,32.219,3.006,4.856,240.134,183.551,189.015
0.353,32.442,3.056,4.832,240.298,183.452,188.900
0.354,32.697,3.126,4.791,240.487,183.340,188.769
0.355,32.977,3.218,4.731,240.693,183.217,188.626
0.356,33.275,3.325,4.658,240.912,183.085,188.474
0.358,33.582,3.443,4.575,241.137,182.945,188.317
0.359,33.893,3.566,4.488,241.362,182.800,188.159
0.360,34.200,3.690,4.401,241.581,182.652,188.004
0.361,34.496,3.808,4.319,241.788,182.502,187.855
0.362,34.774,3.916,4.246,241.977,182.352,187.717
0.364,35.027,4.008,4.187,242.141,182.205,187.593
0.365,35.250,4.081,4.146,242.276,182.062,187.486
0.366,35.440,4.135,4.122,242.377,181.926,187.401
0.367,35.602,4.173,4.112,242.447,181.796,187.336
0.368,35.741,4.197,4.114,242.492,181.673,187.289
0.370,35.863,4.208,4.126,242.518,181.557,187.261
0.371,35.973,4.211,4.145,242.530,181.448,187.248
0.372,36.074,4.206,4.171,242.534,181.347,187.250
0.373,36.169,4.195,4.200,242.536,181.254,187.265
0.375,36.258,4.182,4.230,242.541,181.169,187.292
0.376,36.345,4.168,4.260,242.556,181.092,187.329
0.377,36.432,4.153,4.290,242.585,181.023,187.375
0.378,36.527,4.140,4.319,242.635,180.964,187.429
0.379,36.635,4.128,4.346,242.710,180.913,187.489
0.381,36.761,4.121,4.372,242.808,180.870,187.553
0.382,36.903,4.118,4.395,242.928,180.833,187.621
0.383,37.060,4.121,4.415,243.065,180.801,187.691
0.384,37.229,4.131,4.431,243.215,180.772,187.762
0.385,37.406,4.148,4.444,243.376,180.744,187.833
0.387,37.590,4.172,4.455,243.544,180.716,187.901
0.388,37.775,4.201,4.463,243.714,180.687,187.967
0.389,37.960,4.233,4.472,243.885,180.655,188.029
0.390,38.140,4.268,4.481,244.053,180.618,188.085
0.392,38.313,4.304,4.492,244.213,180.575,188.135
0.393,38.477,4.339,4.505,244.363,180.525,188.176
0.394,38.631,4.374,4.522,244.502,180.467,188.209
0.395,38.776,4.406,4.543,244.630,180.404,188.235
0.396,38.911,4.435,4.567,244.747,180.338,188.254
0.398,39.038,4.463,4.593,244.853,180.271,188.267
0.399,39.155,4.488,4.620,244.948,180.203,188.274
0.400,39.262,4.511,4.646,245.034,180.138,188.275
0.401,39.359,4.532,4.669,245.109,180.077,188.273
0.402,39.445,4.552,4.689,245.175,180.022,188.266
0.404,39.520,4.571,4.704,245.231,179.974,188.256
0.405,39.582,4.588,4.712,245.277,179.935,188.243
0.406,39.631,4.604,4.714,245.315,179.907,188.228
0.407,39.668,4.619,4.711,245.345,179.891,188.213
0.408,39.699,4.632,4.705,245.370,179.882,188.197
0.410,39.726,4.644,4.697,245.393,179.880,188.185
0.411,39.751,4.654,4.689,245.417,179.882,188.176
0.412,39.779,4.663,4.681,245.444,179.886,188.172
0.413,39.813,4.669,4.675,245.478,179.889,188.176
0.415,39.857,4.674,4.672,245.520,179.889,188.189
0.416,39.916,4.677,4.674,245.575,179.884,188.212
0.417,39.995,4.679,4.680,245.643,179.871,188.247
0.418,40.096,4.680,4.690,245.729,179.849,188.296
0.419,40.225,4.682,4.704,245.835,179.815,188.361
0.421,40.381,4.685,4.722,245.961,179.769,188.441
0.422,40.560,4.689,4.743,246.104,179.712,188.533
0.423,40.757,4.696,4.768,246.259,179.647,188.635
0.424,40.968,4.706,4.797,246.425,179.576,188.744
0.425,41.187,4.720,4.829,246.596,179.501,188.858
0.427,41.409,4.737,4.863,246.771,179.424,188.972
0.428,41.630,4.757,4.899,246.944,179.347,189.086
0.429,41.844,4.779,4.936,247.112,179.273,189.195
0.430,42.047,4.804,4.971,247.273,179.203,189.298
0.432,42.233,4.831,5.006,247.422,179.140,189.391
0.433,42.399,4.858,5.038,247.556,179.086,189.471
0.434,42.540,4.887,5.066,247.672,179.041,189.537
0.435,42.659,4.917,5.090,247.773,179.006,189.590
0.436,42.757,4.946,5.111,247.857,178.977,189.631
0.438,42.837,4.974,5.128,247.928,178.953,189.661
0.439,42.901,5.001,5.144,247.985,178.934,189.681
0.440,42.950,5.026,5.160,248.030,178.916,189.692
0.441,42.988,5.048,5.176,248.064,178.900,189.695
0.442,43.018,5.066,5.195,248.088,178.883,189.691
0.444,43.045,5.079,5.217,248.103,178.863,189.681
0.445,43.073,5.088,5.243,248.110,178.840,189.667
0.446,43.107,5.091,5.273,248.110,178.811,189.649
0.447,43.147,5.089,5.305,248.105,178.776,189.629
0.448,43.192,5.084,5.337,248.098,178.736,189.610
0.450,43.238,5.075,5.366,248.090,178.693,189.595
0.451,43.283,5.064,5.390,248.086,178.649,189.587
0.452,43.327,5.051,5.406,248.087,178.605,189.590
0.453,43.373,5.037,5.412,248.098,178.564,189.607
0.455,43.427,5.022,5.406,248.119,178.527,189.640
0.456,43.499,5.008,5.385,248.156,178.496,189.694
0.457,43.595,4.996,5.354,248.209,178.473,189.771
0.458,43.723,4.987,5.317,248.283,178.460,189.874
0.459,43.887,4.981,5.276,248.380,178.458,190.007
0.461,44.092,4.981,5.238,248.501,178.469,190.172
0.462,44.332,4.986,5.204,248.644,178.492,190.364
0.463,44.599,5.000,5.181,248.803,178.525,190.575
0.464,44.884,5.021,5.171,248.974,178.565,190.800
0.465,45.179,5.052,5.179,249.152,178.612,191.031
0.467,45.476,5.092,5.203,249.331,178.663,191.261
0.468,45.765,5.138,5.240,249.507,178.717,191.485
0.469,46.039,5.186,5.287,249.675,178.771,191.694
0.470,46.289,5.236,5.339,249.830,178.825,191.883
0.472,46.507,5.284,5.393,249.967,178.875,192.044
0.473,46.684,5.328,5.445,250.081,178.921,192.171
0.474,46.813,5.365,5.491,250.168,178.961,192.258
0.475,46.899,5.393,5.528,250.229,178.994,192.308
0.476,46.950,5.411,5.553,250.268,179.020,192.329
0.478,46.978,5.419,5.569,250.288,179.040,192.327
0.479,47.001,5.420,5.577,250.292,179.053,192.309
0.480,47.029,5.415,5.578,250.283,179.061,192.282
0.481,47.062,5.406,5.575,250.267,179.062,192.254
0.482,47.094,5.393,5.568,250.244,179.058,192.231
0.484,47.122,5.379,5.560,250.220,179.049,192.221
0.485,47.151,5.365,5.551,250.198,179.033,192.230
0.486,47.195,5.351,5.545,250.181,179.013,192.266
0.487,47.269,5.339,5.540,250.172,178.988,192.335
0.488,47.375,5.328,5.537,250.173,178.958,192.436
0.490,47.510,5.318,5.536,250.183,178.924,192.567
0.491,47.670,5.309,5.538,250.202,178.887,192.721
0.492,47.850,5.301,5.542,250.229,178.847,192.894
0.493,48.046,5.293,5.549,250.264,178.805,193.083
0.495,48.254,5.286,5.559,250.308,178.762,193.281
