"T","Distance","Radius","FreeRadius","X","Y","Z"
0.000,0.000,2.039,2.039,223.859,247.456,236.378
0.002,0.358,2.201,2.201,223.869,247.623,236.062
0.004,0.713,2.365,2.365,223.878,247.788,235.748
0.006,1.063,2.532,2.532,223.886,247.952,235.439
0.007,1.404,2.706,2.706,223.893,248.113,235.138
0.009,1.734,2.887,2.887,223.899,248.269,234.848
0.011,2.050,3.077,3.077,223.903,248.421,234.570
0.013,2.349,3.273,3.273,223.904,248.566,234.309
0.015,2.629,3.467,3.467,223.903,248.705,234.066
0.017,2.887,3.651,3.651,223.899,248.835,233.844
0.019,3.119,3.819,3.819,223.891,248.957,233.645
0.021,3.325,3.962,3.962,223.879,249.068,233.473
0.022,3.502,4.076,4.076,223.864,249.169,233.328
0.024,3.653,4.165,4.165,223.844,249.260,233.209
0.026,3.781,4.234,4.234,223.822,249.342,233.113
0.028,3.891,4.288,4.288,223.797,249.417,233.037
0.030,3.984,4.330,4.330,223.770,249.484,232.978
0.032,4.065,4.366,4.366,223.742,249.546,232.933
0.034,4.137,4.398,4.398,223.712,249.602,232.901
0.036,4.203,4.426,4.426,223.682,249.655,232.877
0.037,4.264,4.451,4.451,223.652,249.705,232.860
0.039,4.322,4.474,4.474,223.622,249.753,232.845
0.041,4.379,4.496,4.496,223.593,249.801,232.832
0.043,4.435,4.517,4.517,223.566,249.847,232.818
0.045,4.490,4.538,4.538,223.540,249.893,232.802
0.047,4.542,4.559,4.559,223.516,249.937,232.785
0.049,4.592,4.579,4.579,223.495,249.978,232.767
0.051,4.637,4.599,4.599,223.475,250.015,232.749
0.052,4.678,4.618,4.618,223.458,250.047,232.731
0.054,4.714,4.636,4.636,223.444,250.074,232.712
0.056,4.744,4.654,4.654,223.433,250.095,232.694
0.058,4.768,4.670,4.670,223.425,250.109,232.675
0.060,4.787,4.684,4.684,223.421,250.114,232.658
0.062,4.804,4.696,4.696,223.420,250.111,232.641
0.064,4.823,4.707,4.707,223.423,250.099,232.626
0.066,4.846,4.715,4.715,223.428,250.081,232.612
0.067,4.871,4.721,4.721,223.434,250.061,232.600
0.069,4.894,4.724,4.724,223.441,250.041,232.592
0.071,4.913,4.726,4.726,223.447,250.023,232.587
0.073,4.926,4.725,4.725,223.451,250.011,232.585
0.075,4.930,4.722,4.722,223.453,250.008,232.588
0.077,4.943,4.716,4.716,223.451,250.017,232.597
0.079,4.970,4.709,4.709,223.444,250.040,232.611
0.081,5.017,4.699,4.699,223.431,250.080,232.631
0.082,5.086,4.688,4.688,223.411,250.141,232.658
0.084,5.178,4.675,4.675,223.384,250.222,232.691
0.086,5.289,4.662,4.662,223.352,250.321,232.730
0.088,5.417,4.648,4.648,223.314,250.435,232.772
0.090,5.557,4.636,4.636,223.271,250.561,232.817
0.092,5.707,4.625,4.625,223.226,250.697,232.862
0.094,5.864,4.615,4.615,223.179,250.839,232.908
0.096,6.024,4.607,4.607,223.130,250.985,232.951
0.097,6.183,4.600,4.600,223.081,251.131,232.991
0.099,6.339,4.594,4.594,223.033,251.275,233.026
0.101,6.489,4.587,4.587,222.987,251.415,233.056
0.103,6.629,4.581,4.581,222.943,251.546,233.078
0.105,6.758,4.574,4.574,222.903,251.668,233.093
0.107,6.878,4.569,4.569,222.865,251.781,233.102
0.109,6.987,4.564,4.564,222.831,251.885,233.107
0.110,7.087,4.562,4.562,222.800,251.979,233.110
0.112,7.176,4.562,4.562,222.772,252.065,233.112
0.114,7.257,4.564,4.564,222.747,252.141,233.115
0.116,7.328,4.568,4.568,222.724,252.208,233.121
0.118,7.390,4.573,4.573,222.705,252.266,233.130
0.120,7.444,4.579,4.579,222.688,252.315,233.146
0.122,7.492,4.586,4.586,222.675,252.355,233.168
0.124,7.537,4.592,4.592,222.663,252.386,233.200
0.125,7.584,4.599,4.599,222.655,252.410,233.238
0.127,7.631,4.607,4.607,222.648,252.430,233.280
0.129,7.676,4.614,4.614,222.643,252.449,233.321
0.131,7.718,4.622,4.622,222.639,252.469,233.357
0.133,7.755,4.630,4.630,222.636,252.494,233.385
0.135,7.791,4.635,4.635,222.633,252.526,233.400
0.137,7.834,4.634,4.634,222.630,252.569,233.398
0.139,7.895,4.625,4.625,222.627,252.626,233.375
0.140,7.982,4.604,4.604,222.622,252.698,233.327
0.142,8.101,4.567,4.567,222.617,252.791,233.251
0.144,8.259,4.518,4.518,222.609,252.905,233.142
0.146,8.454,4.462,4.462,222.599,253.041,233.003
0.148,8.683,4.406,4.406,222.585,253.197,232.836
0.150,8.942,4.357,4.357,222.565,253.371,232.646
0.152,9.226,4.323,4.323,222.539,253.562,232.436
0.154,9.533,4.306,4.306,222.506,253.768,232.211
0.155,9.858,4.303,4.303,222.464,253.986,231.975
0.157,10.197,4.307,4.307,222.411,254.216,231.731
0.159,10.547,4.312,4.312,222.348,254.455,231.483
0.161,10.904,4.311,4.311,222.272,254.701,231.236
0.163,11.266,4.299,4.299,222.182,254.954,230.992
0.165,11.630,4.281,4.281,222.078,255.210,230.757
0.167,11.993,4.267,4.267,221.960,255.468,230.530
0.169,12.352,4.267,4.267,221.833,255.726,230.315
0.170,12.705,4.291,4.291,221.698,255.981,230.110
0.172,13.050,4.351,4.351,221.559,256.231,229.918
0.174,13.382,4.447,4.447,221.418,256.473,229.740
0.176,13.699,4.571,4.571,221.279,256.705,229.575
0.178,13.998,4.709,4.709,221.143,256.926,229.426
0.180,14.275,4.850,4.850,221.013,257.132,229.293
0.182,14.528,4.982,4.982,220.893,257.321,229.176
0.184,14.752,5.095,5.095,220.786,257.491,229.078
0.185,14.946,5.189,5.189,220.692,257.641,228.998
0.187,15.111,5.267,5.267,220.612,257.771,228.935
0.189,15.252,5.332,5.332,220.543,257.883,228.884
0.191,15.372,5.387,5.387,220.483,257.979,228.844
0.193,15.476,5.434,5.434,220.428,258.060,228.810
0.195,15.567,5.476,5.476,220.378,258.130,228.781
0.197,15.648,5.514,5.514,220.330,258.190,228.752
0.199,15.725,5.548,5.548,220.282,258.241,228.722
0.200,15.802,5.581,5.581,220.231,258.285,228.686
0.202,15.884,5.614,5.614,220.174,258.326,228.642
0.204,15.975,5.646,5.646,220.111,258.363,228.587
0.206,16.081,5.678,5.678,220.039,258.399,228.519
0.208,16.198,5.711,5.711,219.960,258.434,228.440
0.210,16.324,5.744,5.744,219.876,258.468,228.352
0.212,16.456,5.777,5.777,219.790,258.500,228.258
0.213,16.589,5.810,5.810,219.703,258.530,228.162
0.215,16.720,5.842,5.842,219.618,258.557,228.066
0.217,16.846,5.873,5.873,219.537,258.581,227.973
0.219,16.963,5.901,5.901,219.462,258.602,227.886
0.221,17.067,5.926,5.926,219.395,258.619,227.807
0.223,17.155,5.946,5.946,219.339,258.632,227.740
0.225,17.224,5.961,5.961,219.296,258.641,227.688
0.227,17.271,5.972,5.972,219.267,258.646,227.651
0.228,17.299,5.980,5.980,219.251,258.648,227.628
0.230,17.313,5.985,5.985,219.244,258.648,227.616
0.232,17.316,5.988,5.988,219.245,258.647,227.613
0.234,17.323,5.990,5.990,219.251,258.647,227.615
0.236,17.333,5.991,5.991,219.260,258.649,227.621
0.238,17.346,5.991,5.991,219.270,258.655,227.626
0.240,17.359,5.991,5.991,219.278,258.665,227.629
0.242,17.377,5.990,5.990,219.283,258.681,227.627
0.243,17.402,5.990,5.990,219.281,258.705,227.616
0.245,17.443,5.989,5.989,219.270,258.737,227.595
0.247,17.500,5.989,5.989,219.250,258.779,227.562
0.249,17.573,5.991,5.991,219.221,258.830,227.518
0.251,17.660,5.995,5.995,219.187,258.890,227.465
0.253,17.758,6.002,6.002,219.147,258.958,227.406
0.255,17.867,6.011,6.011,219.105,259.034,227.341
0.257,17.983,6.022,6.023,219.061,259.118,227.273
0.258,18.106,6.035,6.036,219.018,259.209,227.203
0.260,18.233,6.047,6.048,218.978,259.307,227.134
0.262,18.362,6.058,6.058,218.941,259.412,227.066
0.264,18.493,6.067,6.066,218.911,259.522,227.003
0.266,18.624,6.074,6.071,218.888,259.638,226.946
0.268,18.756,6.080,6.076,218.874,259.759,226.895
0.270,18.887,6.086,6.082,218.868,259.882,226.850
0.272,19.015,6.093,6.091,218.868,260.004,226.811
0.273,19.139,6.102,6.103,218.875,260.123,226.777
0.275,19.257,6.112,6.119,218.888,260.236,226.747
0.277,19.366,6.121,6.134,218.905,260.341,226.721
0.279,19.465,6.127,6.144,218.925,260.435,226.697
0.281,19.552,6.128,6.146,218.949,260.515,226.676
0.283,19.624,6.120,6.134,218.975,260.580,226.656
0.285,19.681,6.102,6.106,219.003,260.625,226.638
0.287,19.722,6.078,6.070,219.031,260.650,226.620
0.288,19.755,6.052,6.034,219.058,260.655,226.602
0.290,19.784,6.027,6.008,219.082,260.648,226.587
0.292,19.809,6.009,6.000,219.100,260.637,226.575
0.294,19.824,6.002,6.020,219.110,260.627,226.568
0.296,19.825,6.002,6.062,219.109,260.627,226.567
0.298,19.848,6.001,6.109,219.095,260.644,226.574
0.300,19.902,5.990,6.145,219.066,260.685,226.591
0.301,19.993,5.959,6.154,219.019,260.758,226.618
0.303,20.129,5.901,6.117,218.951,260.869,226.658
0.305,20.318,5.811,6.029,218.860,261.026,226.711
0.307,20.568,5.697,5.900,218.744,261.237,226.779
0.309,20.875,5.570,5.748,218.605,261.498,226.862
0.311,21.229,5.437,5.587,218.447,261.800,226.955
0.313,21.616,5.310,5.433,218.276,262.133,227.057
0.315,22.026,5.197,5.301,218.097,262.485,227.163
0.316,22.445,5.099,5.195,217.914,262.847,227.272
0.318,22.862,5.017,5.112,217.734,263.207,227.380
0.320,23.265,4.949,5.053,217.562,263.556,227.483
0.322,23.641,4.894,5.015,217.402,263.883,227.579
0.324,23.979,4.851,4.998,217.260,264.178,227.665
0.326,24.267,4.820,4.999,217.141,264.429,227.737
0.328,24.493,4.798,5.011,217.050,264.628,227.794
0.330,24.657,4.785,5.031,216.986,264.774,227.834
0.331,24.767,4.780,5.052,216.946,264.873,227.861
0.333,24.833,4.781,5.069,216.926,264.933,227.877
0.335,24.862,4.787,5.077,216.922,264.961,227.884
0.337,24.870,4.796,5.078,216.929,264.963,227.886
0.339,24.893,4.808,5.071,216.945,264.946,227.884
0.341,24.928,4.819,5.060,216.964,264.917,227.881
0.343,24.967,4.829,5.045,216.984,264.883,227.879
0.345,25.004,4.837,5.028,217.000,264.851,227.882
0.346,25.030,4.840,5.009,217.008,264.826,227.891
0.348,25.051,4.840,4.989,217.005,264.817,227.908
0.350,25.081,4.837,4.969,216.990,264.823,227.934
0.352,25.126,4.830,4.949,216.966,264.842,227.967
0.354,25.183,4.818,4.928,216.934,264.872,228.004
0.356,25.251,4.804,4.908,216.896,264.911,228.044
0.358,25.325,4.787,4.889,216.855,264.956,228.085
0.360,25.402,4.769,4.872,216.812,265.006,228.126
0.361,25.480,4.751,4.857,216.768,265.058,228.165
0.363,25.555,4.735,4.845,216.727,265.110,228.199
0.365,25.623,4.721,4.836,216.689,265.159,228.228
0.367,25.682,4.709,4.831,216.657,265.204,228.249
0.369,25.729,4.700,4.828,216.632,265.242,228.261
0.371,25.767,4.691,4.829,216.613,265.275,228.265
0.373,25.800,4.683,4.832,216.598,265.303,228.263
0.375,25.830,4.674,4.836,216.585,265.330,228.258
0.376,25.861,4.665,4.842,216.572,265.357,228.250
0.378,25.894,4.655,4.844,216.555,265.385,228.243
0.380,25.933,4.643,4.840,216.535,265.417,228.239
0.382,25.979,4.627,4.826,216.507,265.454,228.239
0.384,26.037,4.609,4.799,216.470,265.499,228.246
0.386,26.110,4.586,4.756,216.422,265.552,228.261
0.388,26.203,4.560,4.702,216.361,265.616,228.287
0.390,26.317,4.530,4.639,216.285,265.692,228.326
0.391,26.452,4.498,4.572,216.195,265.781,228.373
0.393,26.605,4.462,4.506,216.092,265.882,228.425
0.395,26.774,4.424,4.444,215.979,265.995,228.477
0.397,26.955,4.384,4.388,215.855,266.118,228.526
0.399,27.147,4.342,4.338,215.724,266.253,228.567
0.401,27.349,4.300,4.293,215.587,266.398,228.595
0.403,27.560,4.258,4.253,215.444,266.553,228.607
0.404,27.780,4.217,4.219,215.299,266.718,228.599
0.406,28.011,4.178,4.190,215.151,266.893,228.565
0.408,28.255,4.142,4.167,215.004,267.076,228.502
0.410,28.513,4.111,4.150,214.858,267.267,228.407
0.412,28.786,4.088,4.139,214.714,267.464,228.284
0.414,29.069,4.075,4.135,214.575,267.662,228.139
0.416,29.357,4.072,4.139,214.440,267.859,227.976
0.418,29.647,4.078,4.149,214.313,268.051,227.800
0.419,29.933,4.092,4.168,214.193,268.236,227.618
0.421,30.209,4.109,4.195,214.082,268.408,227.433
0.423,30.470,4.127,4.231,213.981,268.567,227.251
0.425,30.710,4.144,4.276,213.893,268.707,227.078
0.427,30.924,4.158,4.328,213.817,268.826,226.918
0.429,31.104,4.170,4.384,213.756,268.921,226.777
0.431,31.250,4.179,4.438,213.709,268.990,226.658
0.433,31.363,4.187,4.487,213.674,269.039,226.561
0.434,31.450,4.193,4.527,213.648,269.072,226.486
0.436,31.513,4.197,4.554,213.628,269.097,226.431
0.438,31.558,4.203,4.570,213.611,269.119,226.396
0.440,31.593,4.211,4.577,213.593,269.143,226.379
0.442,31.632,4.223,4.579,213.572,269.177,226.381
0.444,31.690,4.241,4.578,213.545,269.224,226.399
0.446,31.775,4.267,4.577,213.508,269.292,226.434
0.448,31.892,4.302,4.578,213.459,269.386,226.485
0.449,32.048,4.345,4.585,213.394,269.512,226.550
0.451,32.244,4.397,4.602,213.313,269.672,226.628
0.453,32.472,4.458,4.631,213.218,269.860,226.717
0.455,32.725,4.527,4.677,213.113,270.068,226.813
0.457,32.993,4.604,4.740,213.001,270.290,226.914
0.459,33.269,4.685,4.816,212.886,270.519,227.017
0.461,33.544,4.767,4.900,212.771,270.747,227.119
0.463,33.811,4.846,4.988,212.660,270.969,227.217
0.464,34.060,4.918,5.075,212.556,271.176,227.309
0.466,34.283,4.979,5.158,212.462,271.361,227.391
0.468,34.473,5.031,5.233,212.383,271.518,227.461
0.470,34.620,5.072,5.298,212.321,271.641,227.516
0.472,34.723,5.104,5.350,212.277,271.725,227.554
0.474,34.787,5.127,5.386,212.249,271.777,227.578
0.476,34.818,5.141,5.405,212.236,271.802,227.590
0.478,34.822,5.147,5.408,212.233,271.806,227.591
0.479,34.838,5.148,5.400,212.240,271.793,227.584
0.481,34.868,5.145,5.385,212.252,271.770,227.570
0.483,34.906,5.142,5.370,212.269,271.741,227.552
0.485,34.945,5.138,5.358,212.287,271.712,227.531
0.487,34.981,5.138,5.355,212.303,271.689,227.510
0.489,35.007,5.140,5.361,212.316,271.678,227.490
0.491,35.026,5.145,5.373,212.323,271.683,227.473
0.493,35.052,5.154,5.393,212.323,271.705,227.461
0.494,35.092,5.167,5.419,212.316,271.744,227.452
0.496,35.144,5.185,5.450,212.305,271.794,227.446
0.498,35.206,5.206,5.485,212.290,271.855,227.444
0.500,35.276,5.230,5.518,212.273,271.922,227.444
0.502,35.350,5.256,5.547,212.253,271.993,227.446
0.504,35.425,5.283,5.568,212.233,272.065,227.449
0.506,35.498,5.309,5.577,212.214,272.136,227.454
0.507,35.567,5.334,5.574,212.196,272.202,227.460
0.509,35.627,5.358,5.562,212.181,272.260,227.465
0.511,35.677,5.379,5.545,212.169,272.308,227.471
0.513,35.716,5.398,5.527,212.161,272.346,227.476
0.515,35.749,5.413,5.512,212.153,272.378,227.480
0.517,35.777,5.424,5.504,212.145,272.405,227.482
0.519,35.806,5.432,5.503,212.133,272.432,227.482
0.521,35.840,5.438,5.507,212.117,272.461,227.479
0.522,35.882,5.441,5.515,212.093,272.496,227.473
0.524,35.937,5.443,5.527,212.061,272.539,227.464
0.526,36.009,5.444,5.542,212.017,272.594,227.450
0.528,36.101,5.445,5.559,211.960,272.663,227.432
0.530,36.216,5.448,5.579,211.888,272.751,227.408
0.532,36.359,5.455,5.603,211.799,272.859,227.379
0.534,36.528,5.468,5.632,211.694,272.986,227.345
0.536,36.716,5.487,5.666,211.577,273.129,227.308
0.537,36.918,5.513,5.706,211.452,273.283,227.269
0.539,37.130,5.548,5.750,211.320,273.444,227.230
0.541,37.344,5.588,5.795,211.187,273.608,227.194
0.543,37.556,5.634,5.839,211.055,273.770,227.160
0.545,37.761,5.684,5.879,210.928,273.928,227.132
0.547,37.952,5.737,5.914,210.808,274.076,227.111
0.549,38.125,5.792,5.944,210.701,274.211,227.098
0.551,38.274,5.844,5.968,210.608,274.328,227.094
0.552,38.396,5.891,5.988,210.533,274.424,227.103
0.554,38.492,5.931,6.005,210.476,274.499,227.121
0.556,38.567,5.959,6.019,210.435,274.555,227.147
0.558,38.624,5.975,6.031,210.407,274.595,227.178
0.560,38.669,5.982,6.042,210.391,274.620,227.211
0.562,38.705,5.982,6.052,210.384,274.634,227.244
0.564,38.735,5.979,6.061,210.385,274.638,227.273
0.566,38.761,5.974,6.070,210.392,274.634,227.298
0.567,38.782,5.972,6.079,210.402,274.625,227.314
0.569,38.799,5.970,6.087,210.413,274.613,227.319
0.571,38.818,5.969,6.091,210.425,274.600,227.311
0.573,38.846,5.969,6.090,210.434,274.588,227.287
0.575,38.887,5.968,6.083,210.441,274.581,227.248
0.577,38.941,5.965,6.066,210.446,274.580,227.194
0.579,39.009,5.961,6.041,210.452,274.588,227.126
0.581,39.092,5.953,6.009,210.458,274.607,227.046
0.582,39.191,5.941,5.974,210.465,274.641,226.954
0.584,39.306,5.924,5.936,210.475,274.691,226.851
0.586,39.439,5.901,5.899,210.488,274.761,226.738
0.588,39.591,5.871,5.864,210.505,274.852,226.617
0.590,39.766,5.836,5.830,210.526,274.968,226.487
0.592,39.966,5.798,5.796,210.553,275.111,226.351
0.594,40.190,5.759,5.760,210.587,275.282,226.209
0.596,40.437,5.722,5.723,210.625,275.477,226.063
0.597,40.701,5.687,5.682,210.668,275.690,225.915
0.599,40.975,5.655,5.641,210.713,275.917,225.768
0.601,41.254,5.625,5.602,210.759,276.152,225.623
0.603,41.533,5.593,5.569,210.805,276.388,225.483
0.605,41.804,5.560,5.546,210.850,276.620,225.349
0.607,42.064,5.524,5.535,210.892,276.844,225.225
0.609,42.304,5.484,5.538,210.929,277.052,225.111
0.610,42.519,5.444,5.550,210.961,277.240,225.011
0.612,42.704,5.406,5.566,210.986,277.402,224.926
0.614,42.854,5.372,5.583,211.003,277.534,224.857
0.616,42.971,5.346,5.596,211.013,277.638,224.804
0.618,43.060,5.328,5.601,211.017,277.717,224.763
0.620,43.125,5.320,5.599,211.016,277.774,224.732
0.622,43.169,5.318,5.592,211.010,277.812,224.709
0.624,43.198,5.322,5.582,211.001,277.833,224.693
0.625,43.218,5.330,5.569,210.989,277.842,224.679
0.627,43.236,5.341,5.556,210.976,277.841,224.668
0.629,43.256,5.354,5.544,210.962,277.833,224.655
0.631,43.280,5.367,5.530,210.949,277.821,224.639
0.633,43.308,5.380,5.515,210.937,277.808,224.617
0.635,43.340,5.391,5.498,210.927,277.797,224.589
0.637,43.375,5.399,5.477,210.920,277.789,224.555
0.639,43.412,5.404,5.453,210.915,277.784,224.519
0.640,43.448,5.406,5.429,210.912,277.785,224.483
0.642,43.484,5.404,5.408,210.911,277.791,224.447
0.644,43.519,5.398,5.392,210.914,277.805,224.415
0.646,43.554,5.389,5.386,210.918,277.827,224.389
0.648,43.591,5.375,5.391,210.926,277.857,224.370
0.650,43.634,5.359,5.406,210.936,277.898,224.361
0.652,43.688,5.339,5.425,210.948,277.951,224.364
0.654,43.756,5.317,5.444,210.964,278.015,224.381
0.655,43.842,5.293,5.459,210.982,278.093,224.413
0.657,43.942,5.268,5.464,211.002,278.181,224.456
0.659,44.056,5.243,5.459,211.023,278.280,224.508
0.661,44.179,5.218,5.445,211.045,278.387,224.566
0.663,44.310,5.195,5.426,211.066,278.501,224.626
0.665,44.447,5.173,5.403,211.086,278.622,224.686
0.667,44.585,5.155,5.380,211.103,278.747,224.743
0.669,44.724,5.139,5.358,211.118,278.875,224.794
0.670,44.861,5.125,5.337,211.129,279.005,224.836
0.672,44.994,5.108,5.315,211.136,279.135,224.865
0.674,45.125,5.086,5.292,211.138,279.265,224.879
0.676,45.253,5.056,5.266,211.134,279.393,224.877
0.678,45.382,5.015,5.235,211.124,279.520,224.858
0.680,45.514,4.965,5.201,211.110,279.647,224.825
0.682,45.651,4.910,5.162,211.090,279.774,224.778
0.684,45.795,4.856,5.120,211.066,279.903,224.719
0.685,45.946,4.808,5.076,211.037,280.033,224.647
0.687,46.106,4.769,5.029,211.004,280.166,224.565
0.689,46.274,4.744,4.980,210.966,280.301,224.472
0.691,46.451,4.729,4.933,210.925,280.440,224.371
0.693,46.636,4.720,4.888,210.881,280.584,224.262
0.695,46.831,4.715,4.848,210.833,280.732,224.146
0.697,47.033,4.709,4.814,210.782,280.886,224.024
0.699,47.241,4.699,4.789,210.729,281.042,223.898
0.700,47.453,4.686,4.770,210.674,281.201,223.769
0.702,47.667,4.670,4.756,210.619,281.361,223.638
0.704,47.881,4.654,4.743,210.564,281.521,223.506
0.706,48.094,4.640,4.729,210.511,281.680,223.376
0.708,48.302,4.628,4.711,210.459,281.836,223.248
0.710,48.505,4.619,4.689,210.410,281.989,223.124
0.712,48.700,4.612,4.664,210.364,282.136,223.004
0.713,48.886,4.608,4.640,210.322,282.277,222.891
0.715,49.060,4.605,4.619,210.285,282.411,222.786
0.717,49.223,4.602,4.601,210.254,282.539,222.688
0.719,49.379,4.600,4.591,210.228,282.661,222.596
0.721,49.528,4.600,4.589,210.207,282.780,222.510
0.723,49.673,4.607,4.596,210.192,282.899,222.426
0.725,49.818,4.621,4.615,210.182,283.018,222.345
0.727,49.964,4.647,4.646,210.177,283.140,222.265
0.728,50.115,4.687,4.690,210.178,283.267,222.183
0.730,50.272,4.739,4.746,210.185,283.401,222.101
0.732,50.439,4.800,4.811,210.197,283.543,222.014
0.734,50.618,4.867,4.880,210.214,283.696,221.923
0.736,50.811,4.934,4.949,210.237,283.861,221.827
0.738,51.017,5.000,5.016,210.266,284.038,221.725
0.740,51.233,5.061,5.078,210.299,284.224,221.619
0.742,51.457,5.118,5.135,210.338,284.416,221.511
0.743,51.686,5.171,5.188,210.380,284.614,221.403
0.745,51.918,5.222,5.238,210.427,284.814,221.296
0.747,52.149,5.272,5.286,210.478,285.014,221.192
0.749,52.378,5.321,5.333,210.532,285.213,221.092
0.751,52.601,5.369,5.379,210.590,285.406,220.999
0.753,52.815,5.417,5.424,210.650,285.593,220.913
0.755,53.019,5.464,5.468,210.713,285.772,220.836
0.757,53.210,5.511,5.512,210.779,285.939,220.770
0.758,53.390,5.558,5.557,210.847,286.095,220.714
0.760,53.560,5.604,5.601,210.917,286.243,220.666
0.762,53.724,5.651,5.647,210.990,286.382,220.624
