"T","Distance","Radius","FreeRadius","X","Y","Z"
0.000,0.000,2.751,2.751,234.625,206.264,208.455
0.001,0.242,2.812,2.812,234.549,206.238,208.684
0.003,0.484,2.873,2.873,234.474,206.213,208.912
0.004,0.723,2.934,2.934,234.401,206.187,209.138
0.005,0.958,2.995,2.995,234.329,206.162,209.361
0.006,1.189,3.057,3.057,234.259,206.138,209.579
0.008,1.415,3.120,3.120,234.192,206.115,209.793
0.009,1.633,3.183,3.183,234.129,206.093,210.001
0.010,1.844,3.246,3.246,234.070,206.072,210.202
0.012,2.045,3.310,3.310,234.015,206.053,210.395
0.013,2.236,3.375,3.375,233.966,206.035,210.579
0.014,2.416,3.439,3.439,233.922,206.019,210.753
0.016,2.584,3.502,3.502,233.884,206.005,210.915
0.017,2.738,3.564,3.564,233.853,205.993,211.066
0.018,2.879,3.624,3.624,233.829,205.984,211.205
0.019,3.007,3.682,3.682,233.811,205.976,211.331
0.021,3.123,3.737,3.737,233.799,205.970,211.446
0.022,3.227,3.790,3.790,233.791,205.966,211.550
0.023,3.320,3.838,3.838,233.787,205.963,211.643
0.025,3.403,3.883,3.883,233.786,205.962,211.725
0.026,3.475,3.925,3.925,233.788,205.962,211.798
0.027,3.537,3.962,3.962,233.792,205.962,211.860
0.028,3.591,3.994,3.994,233.796,205.964,211.913
0.030,3.635,4.021,4.021,233.802,205.966,211.957
0.031,3.671,4.044,4.044,233.807,205.969,211.993
0.032,3.698,4.061,4.061,233.811,205.972,212.019
0.034,3.718,4.074,4.074,233.813,205.975,212.039
0.035,3.731,4.084,4.084,233.815,205.979,212.051
0.036,3.738,4.090,4.090,233.815,205.981,212.058
0.038,3.742,4.093,4.093,233.814,205.984,212.061
0.039,3.744,4.094,4.094,233.813,205.986,212.060
0.040,3.747,4.094,4.094,233.811,205.987,212.058
0.041,3.751,4.092,4.092,233.809,205.987,212.055
0.043,3.754,4.091,4.091,233.808,205.986,212.052
0.044,3.757,4.089,4.089,233.806,205.983,212.051
0.045,3.762,4.089,4.089,233.806,205.979,212.053
0.047,3.770,4.090,4.090,233.806,205.973,212.059
0.048,3.784,4.094,4.094,233.807,205.965,212.071
0.049,3.805,4.102,4.102,233.809,205.955,212.089
0.051,3.832,4.113,4.113,233.813,205.943,212.113
0.052,3.865,4.129,4.129,233.818,205.930,212.143
0.053,3.902,4.148,4.148,233.824,205.917,212.177
0.054,3.942,4.169,4.169,233.831,205.904,212.214
0.056,3.985,4.191,4.191,233.839,205.892,212.254
0.057,4.028,4.212,4.212,233.848,205.881,212.295
0.058,4.072,4.231,4.231,233.857,205.873,212.337
0.060,4.114,4.246,4.246,233.868,205.869,212.378
0.061,4.156,4.255,4.255,233.879,205.867,212.418
0.062,4.195,4.259,4.259,233.890,205.871,212.455
0.063,4.232,4.259,4.259,233.902,205.880,212.489
0.065,4.267,4.254,4.254,233.914,205.894,212.519
0.066,4.302,4.246,4.246,233.926,205.915,212.544
0.067,4.337,4.237,4.237,233.939,205.939,212.566
0.069,4.371,4.227,4.227,233.953,205.964,212.585
0.070,4.406,4.217,4.217,233.969,205.988,212.604
0.071,4.439,4.209,4.209,233.986,206.009,212.623
0.073,4.472,4.203,4.203,234.006,206.023,212.645
0.074,4.506,4.200,4.200,234.028,206.030,212.670
0.075,4.545,4.200,4.200,234.053,206.025,212.700
0.076,4.595,4.203,4.203,234.082,206.008,212.737
0.078,4.658,4.210,4.210,234.114,205.975,212.781
0.079,4.740,4.220,4.220,234.150,205.924,212.834
0.080,4.844,4.235,4.235,234.191,205.853,212.898
0.082,4.972,4.255,4.255,234.236,205.760,212.973
0.083,5.123,4.279,4.279,234.286,205.646,213.059
0.084,5.292,4.305,4.305,234.338,205.516,213.153
0.085,5.475,4.333,4.333,234.391,205.373,213.253
0.087,5.666,4.360,4.360,234.443,205.220,213.357
0.088,5.862,4.385,4.385,234.494,205.063,213.463
0.089,6.058,4.407,4.407,234.542,204.904,213.567
0.091,6.250,4.425,4.425,234.585,204.748,213.669
0.092,6.432,4.436,4.436,234.622,204.598,213.765
0.093,6.600,4.443,4.443,234.652,204.458,213.853
0.095,6.750,4.446,4.446,234.672,204.332,213.932
0.096,6.878,4.447,4.447,234.683,204.223,213.999
0.097,6.980,4.447,4.447,234.682,204.136,214.051
0.098,7.055,4.448,4.448,234.669,204.072,214.088
0.100,7.109,4.452,4.452,234.650,204.027,214.112
0.101,7.146,4.460,4.460,234.628,204.000,214.125
0.102,7.171,4.473,4.473,234.607,203.987,214.131
0.104,7.186,4.489,4.489,234.593,203.984,214.130
0.105,7.193,4.506,4.506,234.589,203.990,214.127
0.106,7.208,4.521,4.521,234.600,203.999,214.123
0.108,7.240,4.533,4.533,234.630,204.010,214.121
0.109,7.295,4.539,4.539,234.684,204.020,214.123
0.110,7.377,4.537,4.537,234.765,204.024,214.131
0.111,7.492,4.524,4.524,234.879,204.021,214.149
0.113,7.646,4.500,4.500,235.030,204.007,214.178
0.114,7.843,4.467,4.467,235.220,203.978,214.220
0.115,8.080,4.428,4.428,235.447,203.937,214.275
0.117,8.349,4.386,4.386,235.702,203.885,214.341
0.118,8.643,4.343,4.343,235.981,203.825,214.415
0.119,8.955,4.304,4.304,236.275,203.757,214.494
0.120,9.277,4.269,4.269,236.578,203.685,214.578
0.122,9.603,4.243,4.243,236.883,203.611,214.664
0.123,9.925,4.226,4.226,237.183,203.536,214.750
0.124,10.235,4.217,4.217,237.473,203.462,214.834
0.126,10.525,4.213,4.213,237.744,203.392,214.913
0.127,10.790,4.213,4.213,237.990,203.328,214.985
0.128,11.021,4.216,4.216,238.204,203.272,215.049
0.130,11.211,4.220,4.220,238.381,203.226,215.102
0.131,11.357,4.222,4.222,238.516,203.190,215.145
0.132,11.465,4.222,4.222,238.615,203.164,215.179
0.133,11.540,4.220,4.220,238.681,203.147,215.208
0.135,11.587,4.215,4.215,238.719,203.137,215.236
0.136,11.618,4.211,4.211,238.733,203.135,215.264
0.137,11.651,4.206,4.206,238.727,203.138,215.295
0.139,11.696,4.203,4.203,238.704,203.146,215.333
0.140,11.755,4.203,4.203,238.670,203.159,215.381
0.141,11.830,4.206,4.206,238.629,203.173,215.441
0.142,11.919,4.213,4.213,238.584,203.190,215.516
0.144,12.024,4.225,4.225,238.541,203.208,215.610
0.145,12.146,4.241,4.241,238.502,203.225,215.725
0.146,12.289,4.259,4.259,238.472,203.242,215.863
0.148,12.450,4.280,4.280,238.450,203.257,216.022
0.149,12.628,4.303,4.303,238.436,203.271,216.199
0.150,12.819,4.327,4.327,238.429,203.284,216.390
0.152,13.021,4.352,4.352,238.428,203.295,216.591
0.153,13.230,4.377,4.377,238.432,203.305,216.800
0.154,13.442,4.401,4.401,238.439,203.313,217.012
0.155,13.655,4.423,4.423,238.449,203.320,217.224
0.157,13.865,4.442,4.442,238.461,203.325,217.434
0.158,14.068,4.457,4.457,238.474,203.329,217.636
0.159,14.261,4.466,4.466,238.487,203.331,217.829
0.161,14.440,4.469,4.469,238.499,203.331,218.008
0.162,14.602,4.464,4.464,238.509,203.329,218.170
0.163,14.747,4.452,4.452,238.517,203.325,218.315
0.165,14.880,4.435,4.435,238.524,203.316,218.447
0.166,15.004,4.416,4.416,238.530,203.302,218.569
0.167,15.123,4.399,4.399,238.536,203.282,218.687
0.168,15.243,4.386,4.386,238.543,203.252,218.803
0.170,15.369,4.380,4.380,238.552,203.212,218.922
0.171,15.505,4.385,4.385,238.563,203.161,219.047
0.172,15.655,4.403,4.403,238.576,203.097,219.183
0.174,15.826,4.436,4.436,238.594,203.019,219.333
0.175,16.020,4.484,4.484,238.616,202.924,219.501
0.176,16.243,4.548,4.548,238.643,202.812,219.692
0.177,16.498,4.628,4.628,238.676,202.681,219.908
0.179,16.788,4.723,4.723,238.715,202.530,220.153
0.180,17.108,4.835,4.835,238.760,202.363,220.422
0.181,17.450,4.963,4.963,238.808,202.183,220.709
0.183,17.808,5.108,5.108,238.859,201.995,221.009
0.184,18.174,5.265,5.265,238.911,201.801,221.316
0.185,18.542,5.430,5.430,238.963,201.606,221.624
0.187,18.905,5.598,5.598,239.013,201.414,221.927
0.188,19.256,5.761,5.762,239.060,201.229,222.221
0.189,19.587,5.916,5.917,239.103,201.053,222.499
0.190,19.892,6.057,6.057,239.140,200.892,222.755
0.192,20.164,6.178,6.178,239.170,200.749,222.985
0.193,20.396,6.273,6.273,239.192,200.628,223.181
0.194,20.582,6.345,6.345,239.204,200.532,223.340
0.196,20.721,6.397,6.396,239.208,200.462,223.460
0.197,20.819,6.430,6.429,239.205,200.415,223.546
0.198,20.881,6.448,6.447,239.197,200.388,223.602
0.199,20.913,6.455,6.454,239.189,200.379,223.631
0.201,20.926,6.453,6.452,239.181,200.385,223.638
0.202,20.947,6.444,6.444,239.176,200.403,223.627
0.203,20.985,6.433,6.434,239.177,200.432,223.603
0.205,21.036,6.419,6.420,239.187,200.467,223.568
0.206,21.096,6.402,6.404,239.207,200.507,223.527
0.207,21.164,6.383,6.386,239.240,200.548,223.485
0.209,21.239,6.362,6.365,239.289,200.589,223.445
0.210,21.322,6.338,6.341,239.356,200.626,223.411
0.211,21.417,6.314,6.315,239.442,200.658,223.387
0.212,21.522,6.287,6.287,239.543,200.683,223.374
0.214,21.636,6.260,6.257,239.655,200.702,223.371
0.215,21.756,6.233,6.226,239.774,200.715,223.381
0.216,21.881,6.207,6.197,239.897,200.721,223.402
0.218,22.007,6.183,6.171,240.018,200.720,223.437
0.219,22.132,6.162,6.150,240.133,200.712,223.485
0.220,22.256,6.145,6.135,240.239,200.697,223.547
0.222,22.378,6.133,6.129,240.331,200.674,223.623
0.223,22.499,6.128,6.132,240.406,200.644,223.715
0.224,22.625,6.129,6.145,240.458,200.605,223.822
0.225,22.759,6.138,6.168,240.484,200.559,223.945
0.227,22.910,6.154,6.199,240.480,200.504,224.086
0.228,23.080,6.179,6.239,240.447,200.441,224.240
0.229,23.268,6.211,6.285,240.391,200.372,224.407
0.231,23.472,6.253,6.337,240.317,200.298,224.581
0.232,23.686,6.303,6.395,240.229,200.219,224.760
0.233,23.907,6.362,6.458,240.134,200.138,224.941
0.234,24.127,6.428,6.522,240.035,200.055,225.120
0.236,24.343,6.496,6.586,239.937,199.971,225.294
0.237,24.549,6.562,6.646,239.847,199.888,225.459
0.238,24.740,6.621,6.700,239.768,199.806,225.613
0.240,24.911,6.669,6.744,239.707,199.728,225.751
0.241,25.058,6.702,6.775,239.667,199.653,225.871
0.242,25.179,6.715,6.790,239.654,199.584,225.970
0.244,25.278,6.705,6.788,239.670,199.520,226.045
0.245,25.367,6.675,6.769,239.712,199.463,226.098
0.246,25.455,6.628,6.737,239.775,199.411,226.133
0.247,25.549,6.571,6.696,239.854,199.366,226.150
0.249,25.650,6.507,6.648,239.947,199.325,226.153
0.250,25.757,6.443,6.598,240.048,199.291,226.144
0.251,25.867,6.381,6.548,240.152,199.261,226.124
0.253,25.978,6.328,6.502,240.256,199.237,226.097
0.254,26.084,6.287,6.463,240.356,199.217,226.065
0.255,26.182,6.257,6.430,240.446,199.203,226.030
0.256,26.268,6.238,6.405,240.523,199.193,225.993
0.258,26.337,6.228,6.386,240.583,199.188,225.959
0.259,26.386,6.226,6.374,240.621,199.187,225.928
0.260,26.418,6.231,6.370,240.639,199.190,225.902
0.262,26.440,6.242,6.372,240.641,199.195,225.881
0.263,26.459,6.256,6.381,240.632,199.201,225.866
0.264,26.479,6.273,6.395,240.614,199.208,225.857
0.266,26.501,6.291,6.413,240.593,199.213,225.854
0.267,26.523,6.306,6.430,240.572,199.216,225.860
0.268,26.545,6.316,6.444,240.555,199.216,225.872
0.269,26.568,6.318,6.451,240.546,199.212,225.894
0.271,26.600,6.311,6.449,240.549,199.201,225.924
0.272,26.647,6.290,6.434,240.568,199.184,225.963
0.273,26.715,6.255,6.403,240.608,199.160,226.012
0.275,26.808,6.204,6.356,240.671,199.126,226.071
0.276,26.929,6.141,6.297,240.760,199.083,226.141
0.277,27.074,6.067,6.228,240.871,199.032,226.219
0.278,27.239,5.987,6.152,241.001,198.976,226.305
0.280,27.422,5.902,6.073,241.147,198.915,226.396
0.281,27.617,5.815,5.995,241.304,198.852,226.493
0.282,27.822,5.729,5.920,241.471,198.788,226.593
0.284,28.032,5.647,5.852,241.643,198.724,226.695
0.285,28.243,5.570,5.791,241.817,198.664,226.797
0.286,28.451,5.497,5.736,241.990,198.608,226.898
0.288,28.652,5.428,5.688,242.159,198.557,226.998
0.289,28.844,5.365,5.645,242.319,198.515,227.094
0.290,29.021,5.305,5.606,242.467,198.482,227.184
0.291,29.182,5.250,5.572,242.602,198.459,227.269
0.293,29.328,5.199,5.541,242.724,198.443,227.349
0.294,29.464,5.152,5.512,242.837,198.430,227.423
0.295,29.594,5.107,5.483,242.944,198.414,227.494
0.297,29.720,5.062,5.452,243.048,198.390,227.562
0.298,29.850,5.014,5.415,243.153,198.355,227.628
0.299,29.987,4.962,5.372,243.262,198.302,227.693
0.301,30.140,4.903,5.317,243.378,198.227,227.759
0.302,30.315,4.835,5.250,243.505,198.126,227.825
0.303,30.520,4.755,5.168,243.645,197.994,227.894
0.304,30.762,4.663,5.069,243.803,197.824,227.965
0.306,31.047,4.564,4.959,243.980,197.614,228.041
0.307,31.382,4.464,4.844,244.181,197.358,228.121
0.308,31.767,4.369,4.731,244.405,197.057,228.206
0.310,32.192,4.286,4.627,244.648,196.720,228.294
0.311,32.646,4.220,4.537,244.903,196.355,228.385
0.312,33.121,4.179,4.469,245.166,195.970,228.475
0.313,33.606,4.168,4.428,245.432,195.575,228.565
0.315,34.090,4.189,4.417,245.696,195.179,228.652
0.316,34.564,4.235,4.431,245.953,194.788,228.734
0.317,35.018,4.300,4.463,246.197,194.414,228.811
0.319,35.441,4.377,4.507,246.424,194.063,228.882
0.320,35.824,4.458,4.557,246.627,193.745,228.943
0.321,36.156,4.535,4.605,246.803,193.469,228.995
0.323,36.427,4.603,4.647,246.947,193.242,229.035
0.324,36.629,4.653,4.676,247.053,193.072,229.063
0.325,36.768,4.684,4.690,247.126,192.955,229.079
0.326,36.852,4.699,4.691,247.169,192.883,229.086
0.328,36.889,4.700,4.684,247.187,192.851,229.085
0.329,36.896,4.691,4.671,247.185,192.851,229.079
0.330,36.930,4.675,4.656,247.166,192.878,229.069
0.332,36.987,4.655,4.641,247.136,192.924,229.057
0.333,37.058,4.634,4.630,247.098,192.984,229.046
0.334,37.136,4.615,4.625,247.057,193.049,229.035
0.335,37.212,4.600,4.628,247.017,193.114,229.029
0.337,37.280,4.590,4.637,246.983,193.172,229.028
0.338,37.331,4.583,4.651,246.960,193.217,229.034
0.339,37.362,4.582,4.670,246.951,193.242,229.050
0.341,37.387,4.587,4.692,246.957,193.245,229.075
0.342,37.429,4.598,4.717,246.976,193.230,229.108
0.343,37.488,4.615,4.743,247.007,193.198,229.147
0.345,37.561,4.638,4.770,247.046,193.154,229.192
0.346,37.647,4.667,4.796,247.091,193.100,229.240
0.347,37.740,4.700,4.822,247.140,193.039,229.290
0.348,37.837,4.734,4.846,247.191,192.974,229.341
0.350,37.934,4.767,4.868,247.241,192.908,229.392
0.351,38.027,4.798,4.888,247.288,192.844,229.440
0.352,38.111,4.824,4.904,247.329,192.785,229.484
0.354,38.184,4.843,4.916,247.363,192.734,229.524
0.355,38.241,4.855,4.923,247.386,192.694,229.557
0.356,38.280,4.861,4.927,247.398,192.667,229.583
0.358,38.305,4.861,4.928,247.400,192.652,229.602
0.359,38.320,4.857,4.928,247.395,192.646,229.616
0.360,38.334,4.851,4.928,247.384,192.647,229.624
0.361,38.350,4.845,4.928,247.371,192.654,229.628
0.363,38.367,4.839,4.930,247.357,192.664,229.630
0.364,38.384,4.836,4.935,247.345,192.675,229.630
0.365,38.397,4.836,4.943,247.336,192.686,229.628
0.367,38.405,4.839,4.954,247.334,192.693,229.627
0.368,38.412,4.844,4.967,247.341,192.695,229.626
0.369,38.430,4.853,4.982,247.358,192.691,229.628
0.370,38.464,4.863,4.997,247.389,192.677,229.632
0.372,38.517,4.876,5.013,247.435,192.652,229.640
0.373,38.589,4.891,5.029,247.496,192.617,229.652
0.374,38.678,4.908,5.044,247.571,192.572,229.669
0.376,38.781,4.926,5.058,247.657,192.520,229.691
0.377,38.896,4.945,5.072,247.752,192.462,229.719
0.378,39.020,4.964,5.084,247.855,192.400,229.752
0.380,39.152,4.984,5.096,247.964,192.337,229.791
0.381,39.288,5.005,5.107,248.076,192.273,229.836
0.382,39.428,5.024,5.118,248.189,192.211,229.888
0.383,39.568,5.043,5.128,248.303,192.152,229.946
0.385,39.709,5.062,5.139,248.414,192.098,230.012
0.386,39.847,5.079,5.150,248.521,192.051,230.085
0.387,39.982,5.095,5.161,248.622,192.013,230.167
0.389,40.114,5.111,5.174,248.716,191.984,230.256
0.390,40.245,5.127,5.189,248.803,191.964,230.351
0.391,40.374,5.143,5.206,248.883,191.952,230.452
0.392,40.503,5.159,5.225,248.958,191.945,230.557
0.394,40.631,5.175,5.248,249.027,191.943,230.665
0.395,40.759,5.192,5.274,249.092,191.944,230.774
0.396,40.884,5.210,5.304,249.153,191.948,230.883
0.398,41.007,5.228,5.335,249.211,191.952,230.992
0.399,41.126,5.246,5.368,249.266,191.956,231.098
0.400,41.241,5.265,5.400,249.319,191.958,231.200
0.402,41.351,5.284,5.432,249.370,191.956,231.297
0.403,41.456,5.303,5.462,249.421,191.950,231.389
0.404,41.554,5.322,5.490,249.471,191.939,231.473
0.405,41.647,5.341,5.513,249.521,191.922,231.549
0.407,41.734,5.359,5.534,249.569,191.901,231.618
0.408,41.814,5.377,5.552,249.616,191.878,231.679
0.409,41.889,5.394,5.568,249.660,191.854,231.735
0.411,41.957,5.410,5.582,249.701,191.830,231.783
0.412,42.018,5.425,5.594,249.738,191.808,231.826
0.413,42.071,5.438,5.605,249.771,191.789,231.862
0.415,42.115,5.450,5.616,249.799,191.774,231.893
0.416,42.150,5.460,5.626,249.821,191.764,231.919
0.417,42.176,5.468,5.636,249.836,191.762,231.940
0.418,42.195,5.474,5.645,249.844,191.769,231.956
0.420,42.215,5.479,5.653,249.845,191.785,231.968
0.421,42.243,5.482,5.660,249.838,191.811,231.976
0.422,42.278,5.484,5.666,249.827,191.844,231.981
0.424,42.317,5.483,5.671,249.812,191.879,231.985
0.425,42.355,5.482,5.674,249.798,191.914,231.988
0.426,42.388,5.479,5.676,249.786,191.945,231.991
0.427,42.413,5.477,5.678,249.779,191.969,231.997
0.429,42.428,5.476,5.679,249.779,191.981,232.005
0.430,42.444,5.478,5.681,249.789,191.979,232.017
0.431,42.479,5.484,5.684,249.811,191.959,232.034
0.433,42.539,5.496,5.688,249.849,191.917,232.057
0.434,42.631,5.514,5.695,249.903,191.851,232.088
0.435,42.757,5.540,5.705,249.978,191.756,232.127
0.437,42.923,5.573,5.717,250.074,191.630,232.175
0.438,43.124,5.612,5.733,250.190,191.475,232.231
0.439,43.353,5.656,5.751,250.320,191.297,232.295
0.440,43.603,5.704,5.773,250.460,191.102,232.364
0.442,43.867,5.754,5.798,250.605,190.895,232.436
0.443,44.136,5.804,5.825,250.751,190.681,232.511
0.444,44.406,5.854,5.856,250.893,190.465,232.587
0.446,44.667,5.903,5.890,251.026,190.253,232.662
0.447,44.913,5.948,5.927,251.146,190.051,232.735
0.448,45.138,5.989,5.966,251.249,189.863,232.804
0.449,45.335,6.024,6.007,251.329,189.695,232.867
0.451,45.497,6.053,6.051,251.382,189.553,232.924
0.452,45.620,6.073,6.096,251.404,189.441,232.973
0.453,45.709,6.084,6.142,251.394,189.362,233.012
0.455,45.777,6.084,6.190,251.361,189.311,233.042
0.456,45.838,6.073,6.238,251.311,189.285,233.064
0.457,45.898,6.053,6.284,251.252,189.279,233.079
0.459,45.959,6.026,6.324,251.193,189.289,233.086
0.460,46.015,5.994,6.356,251.141,189.311,233.086
0.461,46.063,5.959,6.376,251.103,189.340,233.079
0.462,46.102,5.925,6.382,251.088,189.373,233.067
0.464,46.141,5.894,6.370,251.102,189.405,233.049
0.465,46.204,5.867,6.338,251.155,189.431,233.026
0.466,46.308,5.846,6.285,251.253,189.449,232.999
0.468,46.463,5.831,6.216,251.405,189.453,232.967
0.469,46.677,5.821,6.138,251.616,189.441,232.932
0.470,46.945,5.815,6.056,251.880,189.412,232.894
0.472,47.259,5.812,5.975,252.188,189.370,232.854
0.473,47.608,5.813,5.901,252.531,189.317,232.812
0.474,47.984,5.815,5.840,252.899,189.255,232.770
0.475,48.377,5.818,5.798,253.283,189.187,232.728
0.477,48.776,5.822,5.774,253.674,189.115,232.687
0.478,49.173,5.825,5.765,254.063,189.041,232.648
0.479,49.558,5.827,5.766,254.439,188.969,232.612
0.481,49.921,5.825,5.774,254.794,188.899,232.579
0.482,50.253,5.820,5.783,255.118,188.835,232.550
0.483,50.543,5.810,5.790,255.402,188.779,232.526
0.484,50.783,5.793,5.789,255.637,188.733,232.508
0.486,50.970,5.770,5.778,255.820,188.699,232.496
0.487,51.108,5.742,5.757,255.955,188.674,232.490
0.488,51.203,5.710,5.728,256.049,188.659,232.489
0.490,51.260,5.678,5.697,256.105,188.652,232.495
0.491,51.286,5.649,5.665,256.129,188.652,232.506
0.492,51.304,5.625,5.637,256.126,188.658,232.522
0.494,51.339,5.610,5.616,256.101,188.669,232.544
0.495,51.392,5.605,5.605,256.058,188.684,232.571
0.496,51.458,5.612,5.607,256.003,188.702,232.603
0.497,51.533,5.630,5.621,255.942,188.722,232.640
0.499,51.612,5.656,5.642,255.878,188.744,232.682
0.500,51.692,5.684,5.669,255.817,188.765,232.729
0.501,51.769,5.713,5.698,255.763,188.785,232.780
0.503,51.843,5.738,5.725,255.717,188.804,232.835
0.504,51.914,5.756,5.748,255.679,188.822,232.893
0.505,51.983,5.763,5.764,255.649,188.839,232.953
0.506,52.049,5.758,5.770,255.628,188.854,233.014
0.508,52.113,5.741,5.768,255.616,188.869,233.074
0.509,52.175,5.716,5.757,255.612,188.883,233.135
0.510,52.235,5.685,5.740,255.616,188.896,233.193
0.512,52.294,5.651,5.718,255.630,188.908,233.249
0.513,52.352,5.617,5.691,255.652,188.919,233.302
0.514,52.411,5.584,5.662,255.684,188.929,233.350
0.516,52.471,5.556,5.630,255.724,188.938,233.393
0.517,52.534,5.533,5.597,255.774,188.946,233.431
0.518,52.601,5.513,5.564,255.833,188.955,233.463
0.519,52.676,5.494,5.528,255.900,188.965,233.493
0.521,52.758,5.473,5.492,255.974,188.979,233.525
0.522,52.848,5.448,5.454,256.055,188.998,233.560
0.523,52.948,5.417,5.415,256.142,189.024,233.603
0.525,53.060,5.377,5.374,256.234,189.059,233.655
0.526,53.185,5.326,5.332,256.331,189.105,233.720
0.527,53.327,5.264,5.288,256.431,189.164,233.801
0.528,53.487,5.194,5.242,256.534,189.237,233.901
