"T","Distance","Radius","FreeRadius","X","Y","Z"
0.000,0.000,2.730,2.730,54.783,126.188,123.874
0.001,0.187,2.882,2.882,54.713,126.359,123.845
0.003,0.372,3.031,3.031,54.642,126.528,123.816
0.004,0.556,3.175,3.175,54.570,126.695,123.789
0.005,0.736,3.310,3.310,54.496,126.857,123.763
0.007,0.912,3.433,3.433,54.420,127.014,123.739
0.008,1.083,3.543,3.543,54.341,127.164,123.718
0.010,1.248,3.635,3.635,54.259,127.306,123.700
0.011,1.407,3.707,3.707,54.173,127.439,123.685
0.012,1.559,3.761,3.761,54.081,127.560,123.675
0.014,1.705,3.799,3.799,53.985,127.669,123.669
0.015,1.845,3.826,3.826,53.883,127.765,123.668
0.016,1.981,3.847,3.847,53.774,127.846,123.673
0.018,2.113,3.864,3.864,53.660,127.912,123.683
0.019,2.242,3.882,3.882,53.542,127.964,123.698
0.020,2.370,3.905,3.905,53.423,128.004,123.717
0.022,2.494,3.935,3.935,53.304,128.034,123.738
0.023,2.614,3.971,3.971,53.188,128.054,123.762
0.024,2.729,4.009,4.009,53.077,128.067,123.786
0.026,2.836,4.049,4.049,52.972,128.074,123.811
0.027,2.935,4.087,4.087,52.877,128.075,123.835
0.029,3.022,4.120,4.120,52.792,128.074,123.857
0.030,3.097,4.147,4.147,52.720,128.070,123.877
0.031,3.155,4.165,4.165,52.664,128.066,123.893
0.033,3.197,4.175,4.175,52.624,128.063,123.906
0.034,3.224,4.178,4.178,52.599,128.061,123.914
0.035,3.238,4.176,4.176,52.587,128.059,123.920
0.037,3.241,4.171,4.171,52.585,128.059,123.922
0.038,3.247,4.165,4.165,52.590,128.059,123.922
0.039,3.258,4.159,4.159,52.601,128.059,123.920
0.041,3.273,4.155,4.155,52.616,128.060,123.917
0.042,3.289,4.154,4.154,52.631,128.061,123.912
0.043,3.304,4.156,4.156,52.645,128.063,123.906
0.045,3.316,4.160,4.160,52.655,128.065,123.901
0.046,3.323,4.166,4.166,52.659,128.067,123.895
0.048,3.329,4.173,4.173,52.655,128.069,123.891
0.049,3.343,4.181,4.181,52.641,128.070,123.887
0.050,3.365,4.188,4.188,52.620,128.072,123.883
0.052,3.392,4.195,4.195,52.593,128.074,123.881
0.053,3.424,4.201,4.201,52.562,128.077,123.880
0.054,3.459,4.207,4.207,52.526,128.079,123.879
0.056,3.497,4.212,4.212,52.489,128.082,123.878
0.057,3.535,4.217,4.217,52.451,128.085,123.879
0.058,3.572,4.222,4.222,52.414,128.089,123.880
0.060,3.608,4.227,4.227,52.378,128.093,123.882
0.061,3.640,4.232,4.232,52.347,128.098,123.884
0.063,3.668,4.238,4.238,52.320,128.104,123.887
0.064,3.690,4.243,4.243,52.298,128.111,123.890
0.065,3.708,4.249,4.249,52.282,128.118,123.892
0.067,3.723,4.255,4.255,52.269,128.125,123.894
0.068,3.736,4.261,4.261,52.258,128.132,123.893
0.069,3.750,4.268,4.268,52.247,128.138,123.890
0.071,3.765,4.276,4.276,52.235,128.144,123.883
0.072,3.784,4.284,4.284,52.221,128.149,123.872
0.073,3.808,4.292,4.292,52.203,128.153,123.855
0.075,3.841,4.301,4.301,52.179,128.155,123.832
0.076,3.884,4.311,4.311,52.149,128.156,123.802
0.077,3.938,4.321,4.321,52.111,128.154,123.765
0.079,4.004,4.332,4.332,52.063,128.150,123.718
0.080,4.085,4.344,4.344,52.004,128.143,123.664
0.082,4.179,4.357,4.357,51.932,128.132,123.604
0.083,4.286,4.369,4.369,51.848,128.118,123.539
0.084,4.407,4.380,4.380,51.748,128.099,123.472
0.086,4.543,4.388,4.388,51.633,128.076,123.405
0.087,4.694,4.391,4.391,51.501,128.047,123.339
0.088,4.860,4.388,4.388,51.350,128.011,123.277
0.090,5.045,4.377,4.377,51.180,127.970,123.220
0.091,5.248,4.357,4.357,50.988,127.921,123.171
0.092,5.473,4.327,4.327,50.775,127.865,123.131
0.094,5.720,4.291,4.291,50.538,127.801,123.102
0.095,5.991,4.253,4.253,50.277,127.728,123.086
0.096,6.281,4.218,4.218,49.998,127.649,123.081
0.098,6.586,4.189,4.189,49.705,127.564,123.086
0.099,6.900,4.171,4.171,49.404,127.477,123.100
0.101,7.216,4.168,4.168,49.101,127.389,123.121
0.102,7.529,4.184,4.184,48.801,127.302,123.147
0.103,7.834,4.217,4.217,48.511,127.217,123.177
0.105,8.123,4.262,4.262,48.234,127.137,123.209
0.106,8.392,4.314,4.314,47.978,127.063,123.242
0.107,8.634,4.367,4.367,47.747,126.997,123.275
0.109,8.843,4.416,4.416,47.547,126.942,123.304
0.110,9.014,4.456,4.456,47.384,126.899,123.330
0.111,9.145,4.482,4.482,47.259,126.868,123.351
0.113,9.240,4.490,4.490,47.167,126.847,123.368
0.114,9.303,4.486,4.486,47.107,126.835,123.381
0.115,9.339,4.472,4.472,47.073,126.831,123.390
0.117,9.351,4.452,4.452,47.062,126.832,123.395
0.118,9.361,4.430,4.430,47.071,126.837,123.398
0.120,9.388,4.412,4.412,47.096,126.845,123.397
0.121,9.426,4.399,4.399,47.134,126.852,123.394
0.122,9.473,4.397,4.397,47.180,126.859,123.388
0.124,9.526,4.404,4.404,47.232,126.864,123.380
0.125,9.580,4.418,4.418,47.285,126.863,123.370
0.126,9.633,4.436,4.436,47.336,126.858,123.358
0.128,9.682,4.457,4.457,47.383,126.848,123.346
0.129,9.726,4.477,4.477,47.424,126.836,123.335
0.130,9.763,4.494,4.494,47.457,126.823,123.325
0.132,9.788,4.505,4.505,47.478,126.812,123.317
0.133,9.801,4.510,4.510,47.487,126.803,123.313
0.135,9.808,4.508,4.508,47.480,126.799,123.313
0.136,9.833,4.501,4.501,47.456,126.802,123.319
0.137,9.879,4.490,4.490,47.413,126.814,123.332
0.139,9.950,4.474,4.474,47.349,126.835,123.352
0.140,10.049,4.456,4.456,47.260,126.869,123.380
0.141,10.179,4.435,4.435,47.146,126.917,123.418
0.143,10.338,4.412,4.412,47.007,126.978,123.465
0.144,10.521,4.389,4.389,46.848,127.051,123.520
0.145,10.724,4.369,4.369,46.673,127.134,123.582
0.147,10.941,4.353,4.353,46.487,127.225,123.648
0.148,11.168,4.344,4.344,46.295,127.322,123.718
0.149,11.398,4.343,4.343,46.101,127.423,123.789
0.151,11.627,4.353,4.353,45.909,127.526,123.861
0.152,11.850,4.376,4.376,45.724,127.629,123.931
0.154,12.062,4.410,4.410,45.550,127.730,123.999
0.155,12.258,4.454,4.453,45.393,127.827,124.063
0.156,12.432,4.502,4.501,45.257,127.918,124.121
0.158,12.582,4.551,4.550,45.144,128.002,124.173
0.159,12.710,4.598,4.597,45.052,128.080,124.217
0.160,12.821,4.638,4.638,44.977,128.152,124.257
0.162,12.919,4.669,4.669,44.915,128.219,124.291
0.163,13.008,4.688,4.689,44.861,128.283,124.320
0.164,13.091,4.698,4.700,44.812,128.345,124.347
0.166,13.172,4.702,4.704,44.762,128.405,124.370
0.167,13.256,4.703,4.707,44.708,128.465,124.391
0.168,13.345,4.706,4.710,44.647,128.526,124.411
0.170,13.444,4.714,4.717,44.572,128.589,124.430
0.171,13.559,4.730,4.731,44.481,128.656,124.449
0.173,13.692,4.759,4.757,44.369,128.726,124.469
0.174,13.846,4.799,4.793,44.236,128.800,124.489
0.175,14.015,4.848,4.839,44.087,128.878,124.511
0.177,14.196,4.904,4.892,43.926,128.957,124.532
0.178,14.384,4.963,4.950,43.757,129.038,124.554
0.179,14.575,5.024,5.012,43.585,129.118,124.575
0.181,14.765,5.082,5.076,43.414,129.197,124.596
0.182,14.948,5.137,5.139,43.249,129.274,124.615
0.183,15.121,5.185,5.200,43.093,129.348,124.634
0.185,15.279,5.227,5.257,42.952,129.417,124.651
0.186,15.418,5.263,5.310,42.829,129.480,124.666
0.188,15.534,5.293,5.356,42.730,129.537,124.680
0.189,15.624,5.317,5.394,42.656,129.587,124.690
0.190,15.691,5.336,5.423,42.605,129.631,124.698
0.192,15.743,5.349,5.442,42.573,129.671,124.703
0.193,15.785,5.358,5.448,42.556,129.709,124.704
0.194,15.825,5.362,5.445,42.548,129.748,124.702
0.196,15.866,5.364,5.435,42.546,129.789,124.694
0.197,15.912,5.365,5.421,42.546,129.833,124.683
0.198,15.966,5.367,5.406,42.542,129.884,124.666
0.200,16.030,5.371,5.393,42.532,129.943,124.643
0.201,16.108,5.378,5.386,42.510,130.012,124.615
0.202,16.204,5.391,5.388,42.472,130.093,124.581
0.204,16.322,5.409,5.399,42.414,130.188,124.539
0.205,16.464,5.432,5.419,42.335,130.296,124.492
0.207,16.625,5.458,5.446,42.240,130.415,124.440
0.208,16.802,5.488,5.477,42.131,130.542,124.384
0.209,16.988,5.519,5.512,42.012,130.674,124.325
0.211,17.182,5.552,5.548,41.887,130.808,124.266
0.212,17.376,5.584,5.584,41.759,130.942,124.207
0.213,17.567,5.616,5.618,41.632,131.073,124.149
0.215,17.751,5.646,5.650,41.509,131.198,124.094
0.216,17.922,5.675,5.679,41.394,131.314,124.043
0.217,18.076,5.702,5.706,41.291,131.419,123.997
0.219,18.208,5.727,5.730,41.204,131.509,123.958
0.220,18.315,5.749,5.751,41.133,131.584,123.926
0.221,18.398,5.769,5.770,41.079,131.642,123.901
0.223,18.460,5.787,5.786,41.039,131.685,123.881
0.224,18.505,5.801,5.799,41.010,131.715,123.866
0.226,18.535,5.814,5.811,40.988,131.732,123.855
0.227,18.554,5.824,5.820,40.973,131.738,123.845
0.228,18.569,5.833,5.829,40.961,131.734,123.837
0.230,18.589,5.841,5.838,40.949,131.721,123.828
0.231,18.616,5.849,5.847,40.936,131.700,123.818
0.232,18.651,5.857,5.857,40.917,131.672,123.807
0.234,18.696,5.865,5.868,40.892,131.638,123.791
0.235,18.752,5.873,5.880,40.856,131.600,123.771
0.236,18.818,5.882,5.893,40.811,131.558,123.747
0.238,18.892,5.890,5.905,40.759,131.514,123.718
0.239,18.973,5.898,5.917,40.700,131.468,123.687
0.240,19.057,5.905,5.927,40.639,131.422,123.654
0.242,19.142,5.912,5.935,40.577,131.376,123.619
0.243,19.225,5.918,5.941,40.516,131.331,123.585
0.245,19.304,5.923,5.944,40.458,131.288,123.550
0.246,19.377,5.927,5.945,40.407,131.248,123.517
0.247,19.441,5.930,5.945,40.364,131.212,123.487
0.249,19.494,5.934,5.944,40.332,131.181,123.459
0.250,19.533,5.937,5.942,40.312,131.155,123.436
0.251,19.560,5.939,5.942,40.306,131.137,123.417
0.253,19.580,5.942,5.942,40.312,131.124,123.403
0.254,19.598,5.945,5.943,40.325,131.116,123.393
0.255,19.616,5.947,5.945,40.341,131.113,123.387
0.257,19.633,5.948,5.947,40.357,131.113,123.385
0.258,19.645,5.948,5.947,40.370,131.115,123.386
0.260,19.652,5.946,5.945,40.374,131.120,123.390
0.261,19.664,5.941,5.941,40.366,131.125,123.397
0.262,19.690,5.933,5.933,40.343,131.131,123.406
0.264,19.734,5.921,5.921,40.300,131.136,123.417
0.265,19.801,5.906,5.904,40.234,131.139,123.430
0.266,19.895,5.887,5.884,40.141,131.140,123.445
0.268,20.015,5.865,5.862,40.022,131.139,123.460
0.269,20.156,5.841,5.838,39.883,131.136,123.477
0.270,20.311,5.814,5.814,39.729,131.132,123.494
0.272,20.475,5.785,5.789,39.566,131.127,123.511
0.273,20.642,5.754,5.765,39.399,131.121,123.528
0.274,20.807,5.721,5.742,39.235,131.116,123.544
0.276,20.964,5.689,5.721,39.079,131.112,123.560
0.277,21.107,5.659,5.702,38.937,131.109,123.575
0.279,21.230,5.632,5.685,38.815,131.108,123.588
0.280,21.328,5.610,5.672,38.717,131.109,123.600
0.281,21.395,5.594,5.661,38.651,131.114,123.609
0.283,21.429,5.586,5.654,38.619,131.122,123.617
0.284,21.441,5.587,5.650,38.616,131.132,123.622
0.285,21.463,5.595,5.649,38.635,131.143,123.625
0.287,21.497,5.607,5.650,38.667,131.154,123.627
0.288,21.537,5.620,5.650,38.706,131.164,123.626
0.289,21.574,5.631,5.649,38.742,131.172,123.625
0.291,21.602,5.638,5.646,38.770,131.175,123.622
0.292,21.614,5.637,5.638,38.781,131.174,123.619
0.293,21.630,5.625,5.625,38.767,131.167,123.614
0.295,21.679,5.602,5.607,38.721,131.152,123.609
0.296,21.767,5.571,5.585,38.636,131.129,123.603
0.298,21.904,5.535,5.561,38.503,131.096,123.598
0.299,22.089,5.497,5.536,38.323,131.053,123.592
0.300,22.314,5.460,5.512,38.104,131.004,123.586
0.302,22.571,5.428,5.491,37.853,130.949,123.581
0.303,22.852,5.404,5.475,37.578,130.890,123.576
0.304,23.149,5.389,5.464,37.287,130.831,123.572
0.306,23.454,5.383,5.457,36.988,130.772,123.569
0.307,23.758,5.384,5.455,36.689,130.716,123.567
0.308,24.055,5.390,5.454,36.397,130.665,123.567
0.310,24.334,5.399,5.453,36.121,130.621,123.568
0.311,24.590,5.409,5.452,35.868,130.586,123.571
0.313,24.813,5.419,5.448,35.646,130.562,123.576
0.314,24.999,5.425,5.440,35.461,130.550,123.584
0.315,25.148,5.427,5.429,35.311,130.550,123.593
0.317,25.267,5.426,5.416,35.194,130.558,123.605
0.318,25.358,5.420,5.402,35.105,130.574,123.618
0.319,25.427,5.412,5.388,35.041,130.596,123.634
0.321,25.479,5.399,5.377,34.999,130.621,123.651
0.322,25.520,5.383,5.368,34.975,130.648,123.671
0.323,25.555,5.363,5.365,34.965,130.674,123.692
0.325,25.589,5.340,5.367,34.967,130.699,123.715
0.326,25.623,5.315,5.374,34.976,130.720,123.740
0.327,25.656,5.290,5.383,34.990,130.734,123.766
0.329,25.688,5.267,5.395,35.004,130.742,123.794
0.330,25.719,5.247,5.408,35.016,130.742,123.823
0.332,25.748,5.232,5.420,35.023,130.738,123.851
0.333,25.775,5.224,5.431,35.021,130.733,123.877
0.334,25.801,5.224,5.438,35.007,130.729,123.899
0.336,25.834,5.231,5.441,34.979,130.730,123.916
0.337,25.882,5.239,5.437,34.933,130.738,123.927
0.338,25.951,5.246,5.425,34.867,130.757,123.930
0.340,26.046,5.247,5.402,34.778,130.789,123.924
0.341,26.173,5.238,5.368,34.662,130.837,123.906
0.342,26.336,5.215,5.319,34.517,130.905,123.877
0.344,26.539,5.175,5.255,34.339,130.994,123.833
0.345,26.787,5.115,5.175,34.127,131.107,123.775
0.346,27.071,5.042,5.085,33.886,131.242,123.704
0.348,27.386,4.961,4.990,33.622,131.392,123.623
0.349,27.723,4.877,4.896,33.341,131.556,123.533
0.351,28.075,4.798,4.808,33.049,131.728,123.438
0.352,28.433,4.728,4.732,32.753,131.904,123.339
0.353,28.790,4.673,4.674,32.459,132.080,123.240
0.355,29.138,4.639,4.638,32.173,132.252,123.142
0.356,29.469,4.625,4.622,31.902,132.416,123.048
0.357,29.775,4.627,4.624,31.650,132.568,122.961
0.359,30.049,4.640,4.638,31.426,132.703,122.882
0.360,30.282,4.663,4.661,31.234,132.818,122.814
0.361,30.474,4.690,4.689,31.076,132.912,122.757
0.363,30.629,4.719,4.719,30.949,132.987,122.712
0.364,30.752,4.745,4.745,30.847,133.046,122.676
0.365,30.848,4.767,4.766,30.768,133.092,122.648
0.367,30.922,4.785,4.783,30.707,133.128,122.628
0.368,30.978,4.800,4.797,30.660,133.156,122.614
0.370,31.022,4.814,4.810,30.623,133.179,122.605
0.371,31.059,4.826,4.822,30.593,133.201,122.601
0.372,31.095,4.838,4.835,30.566,133.222,122.599
0.374,31.134,4.850,4.850,30.536,133.248,122.600
0.375,31.180,4.864,4.867,30.501,133.279,122.601
0.376,31.239,4.878,4.887,30.458,133.319,122.602
0.378,31.310,4.895,4.910,30.405,133.367,122.602
0.379,31.392,4.912,4.933,30.345,133.422,122.603
0.380,31.485,4.931,4.958,30.278,133.485,122.602
0.382,31.586,4.952,4.982,30.204,133.555,122.601
0.383,31.695,4.973,5.007,30.125,133.630,122.599
0.385,31.812,4.997,5.031,30.040,133.711,122.596
0.386,31.935,5.022,5.054,29.952,133.796,122.593
0.387,32.063,5.048,5.077,29.861,133.886,122.588
0.389,32.196,5.077,5.101,29.767,133.979,122.582
0.390,32.331,5.108,5.126,29.671,134.075,122.575
0.391,32.470,5.142,5.153,29.575,134.174,122.566
0.393,32.609,5.178,5.183,29.478,134.274,122.556
0.394,32.747,5.217,5.216,29.384,134.375,122.546
0.395,32.883,5.259,5.253,29.292,134.473,122.534
0.397,33.013,5.302,5.293,29.204,134.569,122.522
0.398,33.136,5.344,5.333,29.122,134.660,122.510
0.399,33.251,5.384,5.373,29.046,134.745,122.498
0.401,33.354,5.421,5.411,28.979,134.823,122.486
0.402,33.445,5.452,5.444,28.922,134.892,122.475
0.404,33.520,5.475,5.473,28.875,134.951,122.466
0.405,33.579,5.489,5.494,28.841,134.997,122.457
0.406,33.619,5.495,5.509,28.821,135.031,122.450
0.408,33.640,5.495,5.518,28.814,135.050,122.444
0.409,33.649,5.489,5.523,28.819,135.057,122.440
0.410,33.662,5.480,5.524,28.831,135.054,122.437
0.412,33.682,5.471,5.523,28.847,135.042,122.435
0.413,33.705,5.462,5.520,28.862,135.025,122.433
0.414,33.729,5.456,5.517,28.874,135.004,122.431
0.416,33.751,5.454,5.515,28.878,134.983,122.429
0.417,33.773,5.456,5.515,28.871,134.962,122.425
0.418,33.802,5.461,5.517,28.848,134.945,122.421
0.420,33.846,5.469,5.524,28.806,134.933,122.415
0.421,33.911,5.479,5.535,28.742,134.929,122.407
0.423,34.003,5.491,5.551,28.650,134.935,122.397
0.424,34.122,5.504,5.575,28.533,134.952,122.385
0.425,34.266,5.517,5.606,28.392,134.977,122.371
0.427,34.430,5.532,5.643,28.232,135.008,122.356
0.428,34.610,5.549,5.685,28.057,135.045,122.342
0.429,34.802,5.569,5.730,27.869,135.085,122.327
0.431,35.002,5.592,5.776,27.673,135.126,122.314
0.432,35.207,5.620,5.822,27.473,135.167,122.302
0.433,35.413,5.652,5.865,27.271,135.206,122.293
0.435,35.614,5.691,5.903,27.073,135.240,122.287
0.436,35.809,5.734,5.937,26.880,135.269,122.285
0.438,35.992,5.782,5.966,26.698,135.290,122.286
0.439,36.162,5.833,5.993,26.529,135.302,122.293
0.440,36.321,5.885,6.019,26.370,135.305,122.303
0.442,36.472,5.935,6.045,26.220,135.300,122.314
0.443,36.617,5.984,6.072,26.076,135.287,122.326
0.444,36.761,6.029,6.102,25.934,135.266,122.336
0.446,36.904,6.068,6.136,25.793,135.239,122.343
0.447,37.052,6.104,6.175,25.650,135.206,122.344
0.448,37.205,6.136,6.221,25.501,135.167,122.340
0.450,37.368,6.168,6.274,25.345,135.123,122.327
0.451,37.543,6.199,6.337,25.178,135.074,122.304
0.452,37.734,6.233,6.409,24.999,135.021,122.270
0.454,37.942,6.270,6.493,24.803,134.965,122.223
0.455,38.169,6.312,6.590,24.593,134.906,122.163
0.457,38.408,6.360,6.697,24.372,134.845,122.093
0.458,38.657,6.410,6.808,24.145,134.784,122.015
0.459,38.909,6.462,6.916,23.915,134.722,121.931
0.461,39.160,6.513,7.016,23.686,134.663,121.845
0.462,39.405,6.562,7.099,23.464,134.605,121.758
0.463,39.640,6.607,7.161,23.252,134.552,121.673
0.465,39.859,6.646,7.195,23.054,134.502,121.592
0.466,40.058,6.678,7.196,22.875,134.458,121.519
0.467,40.231,6.703,7.170,22.719,134.420,121.454
0.469,40.374,6.722,7.126,22.589,134.390,121.401
0.470,40.484,6.738,7.070,22.490,134.369,121.362
0.471,40.561,6.750,7.011,22.418,134.354,121.335
0.473,40.611,6.761,6.955,22.372,134.345,121.319
0.474,40.636,6.771,6.913,22.348,134.341,121.313
0.476,40.642,6.781,6.889,22.343,134.341,121.313
0.477,40.655,6.792,6.886,22.353,134.342,121.320
0.478,40.681,6.803,6.899,22.377,134.345,121.331
0.480,40.718,6.812,6.924,22.411,134.347,121.345
0.481,40.761,6.820,6.956,22.452,134.348,121.359
0.482,40.808,6.824,6.990,22.497,134.345,121.373
0.484,40.855,6.825,7.023,22.542,134.339,121.385
0.485,40.901,6.821,7.050,22.586,134.327,121.393
0.486,40.944,6.812,7.068,22.625,134.309,121.396
0.488,40.984,6.800,7.078,22.659,134.289,121.396
0.489,41.019,6.785,7.079,22.686,134.266,121.392
0.490,41.050,6.769,7.075,22.705,134.242,121.387
0.492,41.075,6.754,7.065,22.715,134.220,121.380
0.493,41.096,6.741,7.051,22.715,134.201,121.372
0.495,41.117,6.731,7.033,22.703,134.186,121.364
0.496,41.144,6.726,7.014,22.678,134.178,121.357
0.497,41.183,6.725,6.994,22.639,134.177,121.352
0.499,41.238,6.727,6.973,22.585,134.185,121.348
0.500,41.311,6.731,6.952,22.515,134.205,121.348
0.501,41.404,6.736,6.933,22.427,134.236,121.350
0.503,41.515,6.741,6.917,22.325,134.278,121.356
0.504,41.640,6.745,6.903,22.211,134.328,121.365
0.505,41.775,6.746,6.893,22.088,134.384,121.375
0.507,41.916,6.745,6.887,21.961,134.444,121.386
0.508,42.061,6.741,6.884,21.831,134.506,121.399
0.510,42.205,6.735,6.883,21.701,134.568,121.411
0.511,42.344,6.729,6.882,21.576,134.627,121.423
0.512,42.475,6.722,6.881,21.458,134.682,121.434
0.514,42.594,6.715,6.878,21.349,134.730,121.443
0.515,42.697,6.710,6.871,21.254,134.769,121.450
0.516,42.781,6.706,6.860,21.175,134.798,121.454
0.518,42.846,6.703,6.846,21.112,134.815,121.455
0.519,42.896,6.701,6.829,21.063,134.822,121.455
0.520,42.933,6.699,6.811,21.026,134.820,121.452
0.522,42.962,6.696,6.793,20.999,134.811,121.449
0.523,42.987,6.692,6.775,20.978,134.796,121.446
0.524,43.013,6.686,6.760,20.962,134.777,121.442
0.526,43.039,6.678,6.748,20.949,134.754,121.440
0.527,43.067,6.667,6.740,20.935,134.730,121.439
0.529,43.097,6.653,6.734,20.918,134.705,121.439
0.530,43.130,6.637,6.729,20.897,134.680,121.443
0.531,43.167,6.619,6.725,20.868,134.659,121.450
0.533,43.210,6.598,6.720,20.831,134.640,121.460
0.534,43.258,6.576,6.713,20.786,134.625,121.473
0.535,43.310,6.551,6.703,20.738,134.613,121.488
0.537,43.362,6.526,6.689,20.690,134.603,121.504
0.538,43.410,6.500,6.673,20.644,134.596,121.519
0.539,43.453,6.478,6.657,20.604,134.592,121.532
0.541,43.486,6.461,6.643,20.573,134.589,121.543
0.542,43.506,6.450,6.632,20.554,134.588,121.550
0.543,43.511,6.450,6.626,20.550,134.589,121.552
0.545,43.525,6.461,6.627,20.564,134.591,121.549
0.546,43.562,6.486,6.638,20.600,134.593,121.538
0.548,43.624,6.523,6.656,20.659,134.597,121.520
0.549,43.709,6.566,6.678,20.739,134.600,121.494
0.550,43.805,6.610,6.701,20.831,134.604,121.465
0.552,43.904,6.650,6.721,20.925,134.608,121.435
0.553,43.994,6.679,6.735,21.011,134.611,121.407
0.554,44.067,6.693,6.737,21.079,134.613,121.384
0.556,44.111,6.686,6.725,21.121,134.614,121.370
0.557,44.117,6.654,6.697,21.127,134.613,121.367
0.558,44.159,6.598,6.652,21.086,134.611,121.380
0.560,44.260,6.522,6.591,20.991,134.607,121.409
0.561,44.429,6.427,6.514,20.829,134.600,121.460
0.563,44.676,6.317,6.423,20.594,134.591,121.535
0.564,45.008,6.193,6.318,20.277,134.579,121.636
0.565,45.414,6.057,6.201,19.891,134.564,121.759
