"T","Distance","Radius","FreeRadius","X","Y","Z"
0.000,0.000,1.752,1.752,332.499,301.906,305.757
0.001,0.251,1.841,1.841,332.646,302.106,305.719
0.002,0.501,1.930,1.930,332.794,302.303,305.683
0.004,0.749,2.021,2.021,332.946,302.498,305.650
0.005,0.996,2.112,2.112,333.101,302.687,305.623
0.006,1.239,2.205,2.205,333.262,302.869,305.603
0.007,1.481,2.300,2.300,333.429,303.043,305.591
0.008,1.721,2.397,2.397,333.604,303.207,305.590
0.010,1.960,2.497,2.497,333.789,303.358,305.601
0.011,2.200,2.600,2.600,333.984,303.496,305.627
0.012,2.444,2.705,2.705,334.191,303.619,305.668
0.013,2.695,2.812,2.812,334.411,303.724,305.726
0.014,2.958,2.921,2.921,334.646,303.810,305.804
0.016,3.234,3.030,3.030,334.896,303.877,305.902
0.017,3.524,3.138,3.138,335.157,303.926,306.017
0.018,3.823,3.245,3.245,335.426,303.959,306.145
0.019,4.127,3.350,3.350,335.697,303.977,306.283
0.020,4.433,3.453,3.453,335.966,303.984,306.427
0.022,4.735,3.551,3.551,336.230,303.981,306.574
0.023,5.027,3.645,3.645,336.483,303.971,306.720
0.024,5.305,3.733,3.733,336.722,303.955,306.860
0.025,5.563,3.814,3.814,336.943,303.936,306.993
0.026,5.795,3.888,3.888,337.140,303.916,307.113
0.028,5.996,3.952,3.952,337.310,303.896,307.217
0.029,6.159,4.007,4.007,337.449,303.880,307.303
0.030,6.282,4.051,4.051,337.553,303.868,307.366
0.031,6.367,4.083,4.083,337.626,303.861,307.410
0.032,6.420,4.104,4.104,337.672,303.857,307.436
0.033,6.445,4.116,4.116,337.694,303.857,307.448
0.035,6.448,4.120,4.120,337.696,303.859,307.447
0.036,6.467,4.118,4.118,337.681,303.863,307.436
0.037,6.500,4.112,4.112,337.654,303.869,307.418
0.038,6.543,4.102,4.102,337.618,303.876,307.396
0.039,6.592,4.092,4.092,337.576,303.884,307.370
0.041,6.642,4.082,4.082,337.534,303.891,307.345
0.042,6.689,4.075,4.075,337.493,303.898,307.322
0.043,6.728,4.068,4.068,337.459,303.904,307.305
0.044,6.757,4.063,4.063,337.433,303.908,307.294
0.045,6.776,4.060,4.060,337.415,303.910,307.289
0.047,6.787,4.057,4.057,337.404,303.912,307.288
0.048,6.792,4.054,4.054,337.399,303.912,307.291
0.049,6.798,4.053,4.053,337.400,303.911,307.297
0.050,6.807,4.051,4.051,337.406,303.910,307.304
0.051,6.819,4.050,4.050,337.416,303.908,307.310
0.053,6.833,4.048,4.048,337.428,303.906,307.316
0.054,6.848,4.048,4.048,337.443,303.904,307.320
0.055,6.864,4.048,4.048,337.459,303.901,307.320
0.056,6.881,4.051,4.051,337.476,303.899,307.316
0.057,6.900,4.055,4.055,337.492,303.897,307.307
0.059,6.922,4.063,4.063,337.507,303.896,307.291
0.060,6.949,4.073,4.073,337.522,303.898,307.269
0.061,6.982,4.087,4.087,337.538,303.904,307.240
0.062,7.023,4.105,4.105,337.555,303.917,307.205
0.063,7.073,4.125,4.125,337.574,303.936,307.163
0.065,7.133,4.147,4.147,337.596,303.966,307.116
0.066,7.206,4.169,4.169,337.622,304.006,307.061
0.067,7.292,4.191,4.191,337.652,304.060,307.001
0.068,7.394,4.211,4.211,337.687,304.128,306.934
0.069,7.513,4.229,4.229,337.729,304.212,306.860
0.071,7.651,4.243,4.243,337.776,304.314,306.781
0.072,7.810,4.254,4.254,337.832,304.436,306.695
0.073,7.990,4.260,4.260,337.895,304.577,306.603
0.074,8.187,4.265,4.265,337.964,304.734,306.506
0.075,8.396,4.268,4.268,338.040,304.903,306.407
0.077,8.614,4.272,4.272,338.120,305.078,306.307
0.078,8.836,4.278,4.278,338.204,305.258,306.207
0.079,9.057,4.286,4.286,338.291,305.436,306.109
0.080,9.274,4.299,4.299,338.379,305.609,306.014
0.081,9.481,4.317,4.317,338.469,305.774,305.924
0.083,9.676,4.340,4.340,338.559,305.925,305.840
0.084,9.854,4.368,4.368,338.647,306.059,305.764
0.085,10.010,4.398,4.398,338.734,306.171,305.698
0.086,10.143,4.430,4.430,338.817,306.258,305.643
0.087,10.252,4.461,4.461,338.898,306.319,305.600
0.089,10.344,4.490,4.490,338.975,306.355,305.566
0.090,10.423,4.516,4.516,339.049,306.371,305.542
0.091,10.497,4.537,4.537,339.121,306.370,305.525
0.092,10.569,4.552,4.552,339.190,306.355,305.515
0.093,10.642,4.562,4.562,339.258,306.329,305.510
0.094,10.716,4.567,4.567,339.325,306.296,305.509
0.096,10.791,4.567,4.567,339.390,306.259,305.510
0.097,10.866,4.565,4.565,339.455,306.222,305.512
0.098,10.939,4.560,4.560,339.519,306.187,305.514
0.099,11.010,4.554,4.554,339.583,306.157,305.514
0.100,11.077,4.546,4.546,339.648,306.137,305.512
0.102,11.143,4.538,4.538,339.713,306.128,305.506
0.103,11.210,4.531,4.531,339.779,306.131,305.498
0.104,11.280,4.526,4.526,339.846,306.146,305.486
0.105,11.355,4.524,4.524,339.915,306.173,305.473
0.106,11.437,4.525,4.525,339.985,306.212,305.458
0.108,11.528,4.531,4.531,340.058,306.265,305.442
0.109,11.630,4.542,4.542,340.133,306.331,305.425
0.110,11.742,4.560,4.560,340.211,306.410,305.408
0.111,11.867,4.585,4.585,340.292,306.503,305.391
0.112,12.004,4.619,4.619,340.376,306.611,305.374
0.114,12.155,4.660,4.660,340.464,306.733,305.359
0.115,12.321,4.709,4.709,340.555,306.870,305.345
0.116,12.500,4.764,4.764,340.651,307.021,305.332
0.117,12.691,4.824,4.824,340.750,307.183,305.320
0.118,12.890,4.890,4.890,340.852,307.355,305.308
0.120,13.097,4.961,4.961,340.957,307.532,305.296
0.121,13.308,5.035,5.035,341.064,307.714,305.282
0.122,13.522,5.112,5.112,341.173,307.897,305.266
0.123,13.735,5.192,5.192,341.284,308.078,305.247
0.124,13.946,5.273,5.273,341.396,308.256,305.225
0.126,14.153,5.354,5.354,341.508,308.427,305.199
0.127,14.354,5.435,5.435,341.622,308.590,305.168
0.128,14.546,5.514,5.514,341.735,308.741,305.132
0.129,14.729,5.590,5.590,341.848,308.879,305.090
0.130,14.902,5.663,5.663,341.960,309.001,305.042
0.132,15.065,5.731,5.731,342.070,309.111,304.990
0.133,15.220,5.794,5.794,342.177,309.207,304.934
0.134,15.365,5.851,5.851,342.281,309.291,304.877
0.135,15.501,5.903,5.903,342.379,309.365,304.818
0.136,15.628,5.950,5.950,342.472,309.428,304.761
0.138,15.744,5.992,5.992,342.558,309.482,304.706
0.139,15.849,6.029,6.029,342.637,309.528,304.654
0.140,15.942,6.061,6.061,342.708,309.567,304.606
0.141,16.023,6.088,6.088,342.768,309.600,304.564
0.142,16.090,6.111,6.111,342.819,309.627,304.530
0.144,16.142,6.128,6.129,342.858,309.650,304.504
0.145,16.180,6.142,6.142,342.886,309.669,304.486
0.146,16.206,6.153,6.153,342.905,309.684,304.475
0.147,16.222,6.160,6.160,342.915,309.695,304.470
0.148,16.230,6.164,6.164,342.917,309.703,304.471
0.150,16.238,6.165,6.165,342.914,309.708,304.475
0.151,16.248,6.164,6.164,342.906,309.709,304.482
0.152,16.262,6.162,6.162,342.895,309.708,304.491
0.153,16.279,6.158,6.158,342.882,309.704,304.499
0.154,16.296,6.153,6.153,342.868,309.697,304.508
0.156,16.314,6.147,6.147,342.854,309.688,304.514
0.157,16.331,6.141,6.141,342.842,309.677,304.518
0.158,16.347,6.135,6.135,342.833,309.664,304.517
0.159,16.363,6.130,6.130,342.827,309.649,304.513
0.160,16.380,6.125,6.125,342.824,309.635,304.505
0.161,16.397,6.122,6.122,342.824,309.621,304.495
0.163,16.414,6.120,6.120,342.827,309.610,304.483
0.164,16.430,6.119,6.119,342.832,309.602,304.470
0.165,16.445,6.120,6.120,342.840,309.599,304.457
0.166,16.461,6.122,6.122,342.849,309.602,304.444
0.167,16.480,6.124,6.125,342.861,309.611,304.433
0.169,16.504,6.128,6.128,342.874,309.629,304.423
0.170,16.535,6.132,6.132,342.889,309.656,304.417
0.171,16.576,6.136,6.136,342.904,309.693,304.414
0.172,16.627,6.140,6.140,342.921,309.742,304.415
0.173,16.690,6.144,6.144,342.939,309.802,304.421
0.175,16.762,6.150,6.148,342.958,309.871,304.430
0.176,16.844,6.156,6.154,342.978,309.949,304.443
0.177,16.933,6.164,6.162,342.999,310.034,304.458
0.178,17.027,6.174,6.172,343.021,310.124,304.476
0.179,17.127,6.187,6.185,343.045,310.218,304.495
0.181,17.229,6.203,6.202,343.071,310.316,304.516
0.182,17.334,6.223,6.223,343.098,310.415,304.537
0.183,17.439,6.246,6.248,343.127,310.513,304.559
0.184,17.544,6.273,6.277,343.157,310.611,304.580
0.185,17.646,6.302,6.308,343.189,310.706,304.601
0.187,17.745,6.331,6.341,343.223,310.797,304.620
0.188,17.841,6.361,6.374,343.259,310.884,304.638
0.189,17.932,6.389,6.407,343.296,310.966,304.655
0.190,18.020,6.415,6.437,343.333,311.044,304.670
0.191,18.103,6.438,6.465,343.370,311.117,304.683
0.193,18.183,6.457,6.489,343.407,311.187,304.694
0.194,18.258,6.471,6.509,343.444,311.252,304.703
0.195,18.328,6.481,6.525,343.479,311.312,304.709
0.196,18.394,6.487,6.536,343.512,311.369,304.714
0.197,18.454,6.490,6.544,343.543,311.421,304.716
0.199,18.510,6.490,6.547,343.572,311.468,304.715
0.200,18.560,6.487,6.546,343.597,311.512,304.712
0.201,18.606,6.482,6.542,343.619,311.551,304.706
0.202,18.646,6.475,6.534,343.637,311.586,304.697
0.203,18.682,6.467,6.523,343.652,311.617,304.687
0.205,18.714,6.458,6.510,343.664,311.644,304.676
0.206,18.741,6.450,6.495,343.673,311.668,304.664
0.207,18.765,6.442,6.480,343.680,311.688,304.653
0.208,18.785,6.436,6.466,343.685,311.704,304.643
0.209,18.800,6.433,6.455,343.687,311.717,304.634
0.211,18.812,6.432,6.447,343.688,311.726,304.628
0.212,18.819,6.435,6.444,343.687,311.733,304.624
0.213,18.823,6.443,6.446,343.685,311.736,304.624
0.214,18.829,6.455,6.454,343.682,311.737,304.628
0.215,18.839,6.468,6.464,343.678,311.735,304.637
0.217,18.852,6.481,6.475,343.674,311.732,304.649
0.218,18.865,6.493,6.486,343.672,311.729,304.663
0.219,18.877,6.501,6.495,343.672,311.729,304.675
0.220,18.889,6.504,6.499,343.676,311.734,304.684
0.221,18.903,6.499,6.497,343.685,311.744,304.689
0.222,18.927,6.486,6.487,343.700,311.762,304.686
0.224,18.964,6.463,6.468,343.722,311.790,304.675
0.225,19.019,6.430,6.440,343.753,311.829,304.652
0.226,19.094,6.390,6.404,343.793,311.882,304.617
0.227,19.192,6.343,6.362,343.843,311.949,304.566
0.228,19.317,6.290,6.313,343.905,312.034,304.498
0.230,19.471,6.232,6.259,343.980,312.137,304.412
0.231,19.649,6.171,6.200,344.065,312.255,304.309
0.232,19.847,6.108,6.138,344.159,312.385,304.193
0.233,20.058,6.043,6.072,344.258,312.524,304.068
0.234,20.278,5.977,6.004,344.360,312.668,303.937
0.236,20.501,5.913,5.937,344.463,312.813,303.803
0.237,20.721,5.851,5.871,344.564,312.956,303.670
0.238,20.932,5.792,5.808,344.661,313.093,303.541
0.239,21.131,5.737,5.750,344.751,313.221,303.420
0.240,21.309,5.688,5.698,344.831,313.337,303.309
0.242,21.463,5.646,5.654,344.899,313.436,303.213
0.243,21.587,5.612,5.620,344.953,313.515,303.134
0.244,21.677,5.586,5.596,344.990,313.572,303.076
0.245,21.736,5.567,5.581,345.014,313.608,303.036
0.246,21.768,5.553,5.574,345.025,313.627,303.013
0.248,21.780,5.543,5.572,345.029,313.632,303.002
0.249,21.787,5.537,5.576,345.027,313.626,303.003
0.250,21.804,5.531,5.582,345.023,313.612,303.011
0.251,21.828,5.526,5.590,345.019,313.592,303.025
0.252,21.855,5.519,5.599,345.018,313.571,303.042
0.254,21.881,5.510,5.607,345.024,313.552,303.059
0.255,21.907,5.497,5.613,345.039,313.537,303.073
0.256,21.937,5.481,5.615,345.066,313.529,303.082
0.257,21.979,5.461,5.612,345.108,313.532,303.084
0.258,22.041,5.438,5.602,345.167,313.548,303.076
0.260,22.121,5.410,5.584,345.241,313.576,303.059
0.261,22.219,5.377,5.557,345.327,313.613,303.034
0.262,22.329,5.340,5.519,345.424,313.657,303.004
0.263,22.449,5.298,5.469,345.527,313.707,302.968
0.264,22.576,5.251,5.408,345.635,313.761,302.930
0.266,22.704,5.201,5.338,345.744,313.815,302.890
0.267,22.832,5.150,5.264,345.852,313.869,302.849
0.268,22.954,5.099,5.188,345.956,313.921,302.810
0.269,23.069,5.051,5.113,346.054,313.967,302.773
0.270,23.171,5.006,5.044,346.143,314.007,302.739
0.272,23.258,4.966,4.983,346.219,314.038,302.712
0.273,23.328,4.933,4.933,346.282,314.058,302.690
0.274,23.383,4.908,4.898,346.333,314.070,302.674
0.275,23.427,4.890,4.874,346.375,314.074,302.663
0.276,23.462,4.878,4.860,346.410,314.073,302.656
0.278,23.494,4.869,4.854,346.441,314.068,302.652
0.279,23.523,4.862,4.851,346.470,314.060,302.651
0.280,23.554,4.856,4.851,346.499,314.052,302.652
0.281,23.587,4.848,4.849,346.531,314.045,302.654
0.282,23.625,4.838,4.844,346.569,314.040,302.657
0.283,23.671,4.823,4.833,346.615,314.040,302.658
0.285,23.728,4.803,4.816,346.672,314.046,302.659
0.286,23.799,4.780,4.793,346.741,314.060,302.657
0.287,23.885,4.753,4.765,346.824,314.082,302.653
0.288,23.984,4.724,4.734,346.919,314.111,302.646
0.289,24.093,4.693,4.701,347.022,314.145,302.638
0.291,24.207,4.661,4.666,347.129,314.182,302.628
0.292,24.323,4.629,4.631,347.238,314.220,302.616
0.293,24.438,4.597,4.597,347.345,314.259,302.604
0.294,24.547,4.567,4.565,347.448,314.294,302.591
0.295,24.647,4.538,4.536,347.542,314.326,302.578
0.297,24.735,4.513,4.510,347.625,314.351,302.565
0.298,24.806,4.491,4.489,347.693,314.368,302.553
0.299,24.858,4.474,4.472,347.743,314.376,302.542
0.300,24.889,4.463,4.462,347.772,314.371,302.531
0.301,24.909,4.459,4.458,347.779,314.355,302.522
0.303,24.937,4.462,4.462,347.769,314.330,302.515
0.304,24.976,4.473,4.473,347.745,314.299,302.509
0.305,25.021,4.490,4.491,347.714,314.268,302.505
0.306,25.066,4.510,4.511,347.680,314.238,302.503
0.307,25.105,4.528,4.529,347.649,314.214,302.502
0.309,25.133,4.542,4.543,347.625,314.200,302.503
0.310,25.144,4.547,4.548,347.614,314.199,302.506
0.311,25.162,4.540,4.540,347.621,314.215,302.511
0.312,25.209,4.517,4.517,347.650,314.251,302.517
0.313,25.293,4.474,4.474,347.706,314.312,302.526
0.315,25.419,4.410,4.410,347.796,314.401,302.536
0.316,25.591,4.330,4.330,347.920,314.518,302.548
0.317,25.803,4.239,4.238,348.076,314.661,302.562
0.318,26.049,4.141,4.140,348.259,314.825,302.578
0.319,26.324,4.042,4.041,348.467,315.005,302.596
0.321,26.622,3.946,3.946,348.693,315.198,302.615
0.322,26.938,3.859,3.859,348.936,315.399,302.636
0.323,27.265,3.786,3.785,349.191,315.603,302.658
0.324,27.598,3.730,3.730,349.453,315.806,302.682
0.325,27.931,3.694,3.694,349.720,316.004,302.707
0.327,28.259,3.674,3.675,349.986,316.194,302.734
0.328,28.576,3.670,3.671,350.249,316.369,302.761
0.329,28.877,3.681,3.682,350.504,316.526,302.790
0.330,29.159,3.704,3.705,350.748,316.663,302.820
0.331,29.423,3.738,3.739,350.982,316.782,302.851
0.333,29.669,3.783,3.783,351.203,316.884,302.883
0.334,29.898,3.835,3.835,351.413,316.971,302.915
0.335,30.111,3.895,3.893,351.610,317.045,302.948
0.336,30.307,3.959,3.956,351.794,317.107,302.981
0.337,30.489,4.025,4.021,351.964,317.160,303.014
0.339,30.654,4.092,4.088,352.120,317.205,303.047
0.340,30.805,4.156,4.153,352.261,317.244,303.080
0.341,30.940,4.217,4.215,352.387,317.279,303.113
0.342,31.059,4.271,4.272,352.498,317.312,303.145
0.343,31.164,4.318,4.323,352.592,317.344,303.176
0.344,31.255,4.354,4.365,352.671,317.377,303.207
0.346,31.334,4.380,4.399,352.736,317.411,303.236
0.347,31.403,4.398,4.426,352.789,317.447,303.265
0.348,31.466,4.409,4.445,352.831,317.484,303.292
0.349,31.525,4.415,4.458,352.866,317.524,303.317
0.350,31.582,4.415,4.465,352.894,317.567,303.342
0.352,31.638,4.412,4.468,352.917,317.613,303.364
0.353,31.696,4.408,4.466,352.938,317.663,303.384
0.354,31.756,4.402,4.460,352.957,317.717,303.403
0.355,31.819,4.397,4.451,352.978,317.775,303.419
0.356,31.888,4.392,4.441,353.002,317.838,303.432
0.358,31.963,4.389,4.431,353.030,317.906,303.444
0.359,32.045,4.389,4.422,353.065,317.980,303.452
0.360,32.134,4.391,4.415,353.106,318.059,303.460
0.361,32.231,4.397,4.412,353.154,318.143,303.467
0.362,32.337,4.407,4.414,353.211,318.232,303.475
0.364,32.452,4.422,4.422,353.276,318.326,303.485
0.365,32.577,4.443,4.438,353.351,318.425,303.497
0.366,32.712,4.470,4.462,353.436,318.529,303.513
0.367,32.858,4.504,4.495,353.532,318.637,303.533
0.368,33.016,4.546,4.537,353.639,318.750,303.559
0.370,33.186,4.597,4.590,353.758,318.868,303.590
0.371,33.369,4.656,4.652,353.889,318.989,303.630
0.372,33.567,4.726,4.726,354.035,319.115,303.677
0.373,33.779,4.806,4.811,354.192,319.245,303.733
0.374,34.000,4.897,4.908,354.358,319.377,303.794
0.376,34.228,4.998,5.016,354.531,319.511,303.859
0.377,34.459,5.105,5.129,354.706,319.646,303.925
0.378,34.689,5.214,5.246,354.881,319.781,303.991
0.379,34.917,5.323,5.360,355.054,319.915,304.055
0.380,35.136,5.428,5.470,355.219,320.046,304.114
0.382,35.346,5.525,5.571,355.376,320.175,304.167
0.383,35.541,5.610,5.658,355.519,320.300,304.211
0.384,35.720,5.680,5.729,355.648,320.420,304.245
0.385,35.880,5.734,5.781,355.757,320.534,304.265
0.386,36.018,5.773,5.816,355.845,320.642,304.272
0.388,36.139,5.799,5.837,355.913,320.742,304.264
0.389,36.246,5.816,5.848,355.964,320.833,304.244
0.390,36.343,5.827,5.851,356.005,320.916,304.215
0.391,36.432,5.834,5.850,356.040,320.990,304.180
0.392,36.515,5.839,5.848,356.074,321.053,304.139
0.394,36.592,5.846,5.848,356.111,321.106,304.098
0.395,36.666,5.857,5.853,356.157,321.148,304.056
0.396,36.742,5.873,5.864,356.216,321.177,304.018
0.397,36.828,5.895,5.882,356.293,321.194,303.986
0.398,36.931,5.922,5.907,356.394,321.198,303.962
0.400,37.060,5.955,5.939,356.522,321.188,303.948
0.401,37.223,5.994,5.979,356.682,321.164,303.947
0.402,37.418,6.039,6.027,356.874,321.126,303.960
0.403,37.641,6.090,6.084,357.090,321.078,303.983
0.404,37.885,6.148,6.150,357.325,321.020,304.015
0.406,38.145,6.211,6.224,357.573,320.956,304.055
0.407,38.412,6.277,6.303,357.828,320.887,304.100
0.408,38.682,6.344,6.387,358.083,320.816,304.149
0.409,38.947,6.411,6.470,358.333,320.745,304.199
0.410,39.200,6.473,6.552,358.572,320.677,304.249
0.411,39.435,6.529,6.629,358.793,320.612,304.296
0.413,39.645,6.577,6.698,358.990,320.555,304.339
0.414,39.823,6.614,6.758,359.158,320.506,304.377
0.415,39.964,6.639,6.805,359.290,320.468,304.406
0.416,40.067,6.651,6.840,359.388,320.441,304.427
0.417,40.137,6.653,6.864,359.453,320.424,304.442
0.419,40.176,6.648,6.878,359.491,320.415,304.450
0.420,40.191,6.637,6.884,359.506,320.414,304.452
0.421,40.198,6.623,6.883,359.500,320.418,304.451
0.422,40.222,6.609,6.876,359.478,320.427,304.446
0.423,40.259,6.595,6.865,359.444,320.439,304.439
0.425,40.305,6.585,6.851,359.402,320.453,304.430
0.426,40.355,6.579,6.834,359.355,320.468,304.420
0.427,40.406,6.578,6.817,359.307,320.482,304.411
0.428,40.453,6.579,6.799,359.262,320.494,304.404
0.429,40.492,6.583,6.782,359.224,320.503,304.398
0.431,40.523,6.589,6.766,359.194,320.508,304.395
0.432,40.544,6.595,6.754,359.173,320.512,304.394
0.433,40.557,6.602,6.744,359.160,320.513,304.394
0.434,40.562,6.608,6.739,359.155,320.512,304.396
0.435,40.568,6.613,6.739,359.160,320.511,304.399
0.437,40.582,6.616,6.744,359.174,320.509,304.403
0.438,40.606,6.619,6.751,359.197,320.508,304.408
0.439,40.639,6.622,6.761,359.229,320.508,304.413
0.440,40.682,6.624,6.772,359.272,320.509,304.418
0.441,40.734,6.626,6.782,359.324,320.512,304.423
0.443,40.797,6.629,6.791,359.386,320.517,304.428
0.444,40.870,6.632,6.798,359.459,320.526,304.432
0.445,40.952,6.636,6.801,359.540,320.538,304.435
0.446,41.042,6.642,6.801,359.629,320.552,304.437
0.447,41.138,6.648,6.797,359.724,320.568,304.439
0.449,41.239,6.654,6.790,359.823,320.585,304.441
0.450,41.342,6.661,6.780,359.924,320.604,304.441
0.451,41.446,6.667,6.769,360.027,320.623,304.442
0.452,41.550,6.672,6.756,360.128,320.643,304.442
0.453,41.651,6.676,6.742,360.228,320.661,304.442
0.455,41.748,6.678,6.728,360.323,320.680,304.441
0.456,41.840,6.678,6.714,360.413,320.696,304.440
0.457,41.924,6.677,6.700,360.496,320.711,304.439
0.458,41.999,6.675,6.688,360.570,320.724,304.438
0.459,42.066,6.672,6.678,360.636,320.734,304.437
0.461,42.126,6.670,6.671,360.696,320.742,304.437
0.462,42.182,6.669,6.666,360.751,320.747,304.436
0.463,42.233,6.669,6.665,360.802,320.751,304.437
0.464,42.282,6.670,6.669,360.851,320.752,304.437
0.465,42.330,6.675,6.677,360.900,320.751,304.439
0.467,42.380,6.681,6.690,360.949,320.748,304.441
0.468,42.431,6.690,6.706,361.000,320.742,304.445
0.469,42.487,6.700,6.725,361.055,320.735,304.450
0.470,42.548,6.710,6.744,361.115,320.725,304.456
0.471,42.616,6.721,6.764,361.181,320.714,304.463
0.472,42.691,6.731,6.782,361.255,320.700,304.473
0.474,42.774,6.740,6.797,361.335,320.685,304.483
0.475,42.861,6.747,6.809,361.420,320.667,304.494
0.476,42.951,6.752,6.816,361.507,320.647,304.506
0.477,43.041,6.755,6.821,361.594,320.625,304.517
0.478,43.130,6.755,6.822,361.679,320.602,304.527
0.480,43.217,6.753,6.823,361.761,320.575,304.536
0.481,43.298,6.748,6.824,361.837,320.547,304.543
0.482,43.373,6.740,6.826,361.905,320.517,304.548
0.483,43.440,6.729,6.830,361.964,320.484,304.550
0.484,43.499,6.715,6.838,362.011,320.449,304.549
0.486,43.549,6.698,6.851,362.044,320.412,304.544
0.487,43.594,6.676,6.866,362.063,320.372,304.534
