"T","Distance","Radius","FreeRadius","X","Y","Z"
0.000,0.000,2.337,2.337,131.784,138.604,159.339
0.001,0.081,2.374,2.374,131.714,138.643,159.326
0.003,0.162,2.410,2.410,131.645,138.683,159.312
0.004,0.243,2.446,2.446,131.576,138.724,159.299
0.005,0.324,2.483,2.483,131.509,138.767,159.285
0.007,0.404,2.520,2.520,131.444,138.812,159.273
0.008,0.485,2.557,2.557,131.380,138.861,159.260
0.009,0.566,2.595,2.595,131.319,138.913,159.248
0.010,0.648,2.633,2.633,131.262,138.969,159.237
0.012,0.730,2.672,2.672,131.207,139.030,159.226
0.013,0.815,2.711,2.711,131.156,139.097,159.216
0.014,0.902,2.751,2.751,131.109,139.170,159.207
0.016,0.992,2.792,2.792,131.067,139.249,159.198
0.017,1.087,2.834,2.834,131.030,139.336,159.191
0.018,1.185,2.877,2.877,130.998,139.428,159.185
0.020,1.285,2.921,2.921,130.970,139.524,159.181
0.021,1.386,2.966,2.966,130.948,139.622,159.179
0.022,1.486,3.012,3.012,130.930,139.721,159.179
0.023,1.584,3.058,3.058,130.917,139.819,159.182
0.025,1.680,3.103,3.103,130.909,139.913,159.189
0.026,1.770,3.145,3.145,130.906,140.003,159.199
0.027,1.855,3.184,3.184,130.907,140.087,159.213
0.029,1.933,3.219,3.219,130.913,140.163,159.231
0.030,2.003,3.249,3.249,130.924,140.228,159.254
0.031,2.066,3.272,3.272,130.938,140.283,159.282
0.033,2.123,3.290,3.290,130.958,140.324,159.315
0.034,2.174,3.301,3.301,130.979,140.354,159.351
0.035,2.220,3.308,3.308,131.001,140.374,159.386
0.036,2.260,3.310,3.310,131.021,140.386,159.418
0.038,2.291,3.308,3.308,131.037,140.391,159.444
0.039,2.310,3.303,3.303,131.047,140.391,159.461
0.040,2.317,3.295,3.295,131.050,140.387,159.466
0.042,2.331,3.285,3.285,131.042,140.382,159.456
0.043,2.365,3.275,3.275,131.022,140.376,159.429
0.044,2.424,3.267,3.267,130.988,140.372,159.381
0.046,2.512,3.263,3.263,130.938,140.370,159.309
0.047,2.631,3.265,3.265,130.869,140.374,159.211
0.048,2.785,3.276,3.276,130.781,140.383,159.086
0.049,2.968,3.298,3.298,130.675,140.398,158.937
0.051,3.173,3.333,3.333,130.557,140.419,158.770
0.052,3.394,3.381,3.381,130.429,140.445,158.592
0.053,3.624,3.440,3.440,130.294,140.477,158.409
0.055,3.856,3.504,3.504,130.157,140.514,158.225
0.056,4.084,3.571,3.571,130.020,140.555,158.048
0.057,4.301,3.636,3.636,129.888,140.601,157.882
0.059,4.500,3.695,3.695,129.765,140.651,157.734
0.060,4.676,3.746,3.746,129.652,140.705,157.611
0.061,4.823,3.783,3.783,129.555,140.763,157.516
0.063,4.939,3.806,3.806,129.476,140.825,157.458
0.064,5.028,3.817,3.817,129.418,140.889,157.438
0.065,5.104,3.820,3.820,129.380,140.954,157.451
0.066,5.180,3.816,3.816,129.359,141.017,157.488
0.068,5.258,3.807,3.807,129.351,141.075,157.539
0.069,5.335,3.798,3.798,129.355,141.125,157.597
0.070,5.405,3.789,3.789,129.367,141.165,157.653
0.072,5.460,3.784,3.784,129.384,141.193,157.697
0.073,5.494,3.783,3.783,129.405,141.205,157.722
0.074,5.516,3.785,3.785,129.426,141.198,157.717
0.076,5.570,3.790,3.790,129.445,141.171,157.675
0.077,5.673,3.796,3.796,129.458,141.120,157.586
0.078,5.836,3.803,3.803,129.463,141.043,157.442
0.079,6.066,3.810,3.810,129.458,140.938,157.237
0.081,6.356,3.816,3.816,129.444,140.808,156.978
0.082,6.696,3.822,3.822,129.421,140.659,156.674
0.083,7.076,3.828,3.828,129.390,140.493,156.334
0.085,7.483,3.836,3.836,129.354,140.315,155.969
0.086,7.910,3.849,3.849,129.313,140.130,155.587
0.087,8.344,3.869,3.869,129.268,139.942,155.198
0.089,8.775,3.897,3.897,129.220,139.756,154.812
0.090,9.193,3.935,3.935,129.171,139.575,154.439
0.091,9.588,3.986,3.986,129.122,139.404,154.087
0.092,9.948,4.049,4.049,129.073,139.247,153.766
0.094,10.263,4.122,4.122,129.027,139.108,153.486
0.095,10.526,4.201,4.201,128.983,138.992,153.254
0.096,10.739,4.280,4.280,128.943,138.897,153.068
0.098,10.908,4.357,4.357,128.906,138.820,152.923
0.099,11.037,4.428,4.428,128.872,138.761,152.813
0.100,11.132,4.487,4.487,128.841,138.717,152.735
0.102,11.198,4.532,4.532,128.814,138.687,152.683
0.103,11.241,4.562,4.562,128.790,138.668,152.652
0.104,11.268,4.579,4.579,128.770,138.658,152.638
0.105,11.285,4.585,4.585,128.752,138.656,152.637
0.107,11.300,4.585,4.585,128.739,138.660,152.642
0.108,11.315,4.580,4.580,128.728,138.667,152.650
0.109,11.328,4.575,4.575,128.721,138.677,152.655
0.111,11.338,4.571,4.571,128.718,138.686,152.654
0.112,11.351,4.571,4.571,128.717,138.696,152.646
0.113,11.368,4.577,4.577,128.718,138.705,152.631
0.115,11.390,4.586,4.586,128.721,138.714,152.611
0.116,11.417,4.597,4.597,128.725,138.723,152.586
0.117,11.449,4.611,4.611,128.729,138.732,152.556
0.118,11.485,4.625,4.625,128.733,138.741,152.521
0.120,11.524,4.638,4.638,128.736,138.749,152.483
0.121,11.566,4.650,4.650,128.737,138.757,152.442
0.122,11.611,4.659,4.659,128.736,138.764,152.398
0.124,11.658,4.666,4.666,128.733,138.771,152.351
0.125,11.707,4.671,4.671,128.725,138.778,152.303
0.126,11.758,4.676,4.676,128.714,138.784,152.254
0.128,11.812,4.680,4.680,128.699,138.790,152.203
0.129,11.868,4.685,4.685,128.680,138.796,152.150
0.130,11.927,4.690,4.690,128.659,138.803,152.095
0.132,11.990,4.698,4.698,128.634,138.811,152.038
0.133,12.055,4.707,4.707,128.607,138.820,151.979
0.134,12.125,4.719,4.719,128.578,138.831,151.917
0.135,12.198,4.733,4.733,128.547,138.845,151.852
0.137,12.274,4.749,4.749,128.515,138.860,151.784
0.138,12.355,4.766,4.766,128.482,138.879,151.713
0.139,12.440,4.786,4.786,128.448,138.901,151.638
0.141,12.530,4.807,4.807,128.413,138.926,151.560
0.142,12.624,4.830,4.830,128.378,138.956,151.477
0.143,12.722,4.855,4.855,128.344,138.988,151.391
0.145,12.823,4.880,4.880,128.309,139.024,151.304
0.146,12.925,4.906,4.906,128.276,139.062,151.215
0.147,13.027,4.932,4.932,128.243,139.101,151.127
0.148,13.128,4.958,4.958,128.210,139.142,151.040
0.150,13.227,4.984,4.984,128.179,139.182,150.955
0.151,13.323,5.008,5.008,128.150,139.223,150.873
0.152,13.414,5.031,5.031,128.121,139.262,150.796
0.154,13.500,5.052,5.052,128.095,139.300,150.724
0.155,13.579,5.071,5.071,128.070,139.336,150.659
0.156,13.649,5.089,5.089,128.048,139.369,150.601
0.158,13.711,5.105,5.105,128.027,139.399,150.551
0.159,13.766,5.120,5.120,128.009,139.425,150.506
0.160,13.816,5.134,5.134,127.992,139.449,150.465
0.161,13.865,5.147,5.147,127.976,139.470,150.424
0.163,13.915,5.158,5.158,127.961,139.488,150.380
0.164,13.968,5.170,5.170,127.947,139.505,150.331
0.165,14.029,5.184,5.184,127.932,139.518,150.274
0.167,14.099,5.201,5.201,127.918,139.530,150.206
0.168,14.183,5.222,5.222,127.902,139.541,150.125
0.169,14.283,5.250,5.250,127.886,139.549,150.027
0.171,14.401,5.286,5.286,127.868,139.557,149.910
0.172,14.542,5.331,5.331,127.848,139.563,149.771
0.173,14.705,5.386,5.386,127.826,139.569,149.609
0.174,14.889,5.450,5.450,127.803,139.573,149.427
0.176,15.088,5.520,5.520,127.778,139.577,149.230
0.177,15.296,5.594,5.594,127.753,139.581,149.023
0.178,15.510,5.670,5.670,127.729,139.584,148.810
0.180,15.724,5.746,5.746,127.705,139.587,148.598
0.181,15.933,5.820,5.820,127.682,139.590,148.390
0.182,16.132,5.890,5.890,127.662,139.593,148.192
0.184,16.317,5.955,5.955,127.643,139.596,148.008
0.185,16.483,6.013,6.013,127.628,139.599,147.843
0.186,16.624,6.065,6.065,127.617,139.603,147.702
0.188,16.736,6.110,6.110,127.610,139.608,147.591
0.189,16.815,6.148,6.148,127.607,139.613,147.511
0.190,16.866,6.177,6.177,127.608,139.619,147.461
0.191,16.892,6.198,6.198,127.612,139.625,147.436
0.193,16.901,6.211,6.211,127.618,139.630,147.431
0.194,16.915,6.216,6.216,127.625,139.635,147.442
0.195,16.938,6.215,6.215,127.631,139.638,147.464
0.197,16.968,6.209,6.209,127.636,139.639,147.493
0.198,16.999,6.202,6.202,127.639,139.639,147.525
0.199,17.028,6.194,6.194,127.638,139.636,147.554
0.201,17.052,6.187,6.187,127.633,139.630,147.576
0.202,17.069,6.184,6.184,127.623,139.621,147.587
0.203,17.091,6.185,6.185,127.606,139.608,147.582
0.204,17.128,6.192,6.192,127.583,139.592,147.558
0.206,17.183,6.204,6.204,127.553,139.572,147.517
0.207,17.253,6.220,6.220,127.519,139.551,147.459
0.208,17.337,6.241,6.241,127.482,139.529,147.388
0.210,17.431,6.265,6.265,127.443,139.507,147.305
0.211,17.532,6.294,6.294,127.404,139.486,147.214
0.212,17.639,6.326,6.326,127.366,139.468,147.115
0.214,17.749,6.361,6.360,127.331,139.453,147.013
0.215,17.859,6.397,6.397,127.300,139.443,146.908
0.216,17.967,6.435,6.435,127.275,139.438,146.803
0.217,18.071,6.472,6.472,127.256,139.440,146.700
0.219,18.170,6.507,6.507,127.246,139.450,146.602
0.220,18.264,6.539,6.539,127.245,139.469,146.510
0.221,18.354,6.566,6.566,127.253,139.495,146.424
0.223,18.440,6.588,6.588,127.268,139.527,146.345
0.224,18.524,6.604,6.604,127.289,139.564,146.273
0.225,18.606,6.615,6.615,127.314,139.604,146.206
0.227,18.686,6.622,6.622,127.342,139.647,146.145
0.228,18.762,6.626,6.626,127.372,139.690,146.090
0.229,18.835,6.628,6.629,127.402,139.733,146.040
0.230,18.902,6.629,6.630,127.431,139.774,145.995
0.232,18.963,6.631,6.632,127.457,139.812,145.956
0.233,19.016,6.635,6.634,127.480,139.846,145.921
0.234,19.060,6.640,6.639,127.497,139.873,145.891
0.236,19.095,6.647,6.645,127.508,139.894,145.865
0.237,19.122,6.655,6.653,127.514,139.909,145.843
0.238,19.143,6.664,6.661,127.514,139.918,145.825
0.240,19.160,6.674,6.671,127.510,139.924,145.808
0.241,19.177,6.684,6.682,127.504,139.926,145.794
0.242,19.193,6.694,6.694,127.494,139.925,145.781
0.243,19.210,6.704,6.706,127.483,139.924,145.768
0.245,19.228,6.714,6.719,127.471,139.922,145.754
0.246,19.246,6.724,6.732,127.459,139.921,145.740
0.247,19.266,6.733,6.745,127.448,139.921,145.724
0.249,19.286,6.741,6.757,127.439,139.924,145.706
0.250,19.310,6.748,6.767,127.432,139.931,145.685
0.251,19.337,6.753,6.776,127.428,139.942,145.661
0.253,19.368,6.758,6.783,127.427,139.957,145.634
0.254,19.401,6.761,6.787,127.429,139.975,145.605
0.255,19.437,6.763,6.790,127.433,139.995,145.576
0.257,19.474,6.765,6.791,127.439,140.017,145.547
0.258,19.510,6.766,6.791,127.446,140.038,145.519
0.259,19.544,6.767,6.790,127.455,140.060,145.494
0.260,19.576,6.768,6.788,127.465,140.080,145.472
0.262,19.603,6.769,6.787,127.475,140.099,145.454
0.263,19.625,6.772,6.787,127.485,140.115,145.442
0.264,19.642,6.775,6.787,127.495,140.127,145.437
0.266,19.654,6.778,6.787,127.505,140.134,145.439
0.267,19.668,6.781,6.787,127.514,140.137,145.448
0.268,19.684,6.782,6.786,127.522,140.137,145.463
0.270,19.703,6.781,6.783,127.528,140.135,145.480
0.271,19.719,6.778,6.779,127.532,140.133,145.496
0.272,19.731,6.771,6.771,127.533,140.135,145.507
0.273,19.738,6.760,6.760,127.532,140.140,145.512
0.275,19.752,6.745,6.746,127.528,140.152,145.505
0.276,19.781,6.725,6.728,127.520,140.172,145.485
0.277,19.831,6.703,6.707,127.509,140.203,145.448
0.279,19.904,6.677,6.682,127.493,140.245,145.391
0.280,20.004,6.649,6.654,127.472,140.302,145.311
0.281,20.136,6.619,6.622,127.446,140.375,145.204
0.283,20.300,6.587,6.588,127.415,140.464,145.070
0.284,20.494,6.554,6.550,127.380,140.569,144.910
0.285,20.712,6.520,6.510,127.340,140.686,144.731
0.286,20.946,6.485,6.470,127.298,140.811,144.538
0.288,21.192,6.450,6.430,127.254,140.942,144.334
0.289,21.444,6.415,6.393,127.208,141.076,144.126
0.290,21.696,6.380,6.359,127.162,141.210,143.918
0.292,21.941,6.344,6.331,127.117,141.340,143.715
0.293,22.175,6.309,6.310,127.074,141.464,143.522
0.294,22.390,6.275,6.296,127.032,141.579,143.344
0.296,22.582,6.242,6.289,126.994,141.681,143.186
0.297,22.745,6.212,6.287,126.960,141.767,143.052
0.298,22.873,6.185,6.288,126.930,141.836,142.948
0.299,22.971,6.163,6.291,126.905,141.888,142.870
0.301,23.041,6.146,6.294,126.884,141.926,142.815
0.302,23.087,6.136,6.295,126.866,141.951,142.780
0.303,23.115,6.133,6.294,126.851,141.965,142.762
0.305,23.130,6.138,6.289,126.838,141.971,142.757
0.306,23.142,6.148,6.280,126.827,141.970,142.762
0.307,23.158,6.163,6.270,126.817,141.964,142.774
0.309,23.179,6.179,6.259,126.808,141.955,142.790
0.310,23.199,6.196,6.248,126.800,141.945,142.806
0.311,23.217,6.211,6.237,126.790,141.936,142.818
0.313,23.230,6.222,6.229,126.780,141.930,142.825
0.314,23.242,6.228,6.223,126.769,141.929,142.822
0.315,23.259,6.228,6.220,126.757,141.931,142.810
0.316,23.284,6.222,6.217,126.743,141.936,142.791
0.318,23.315,6.211,6.215,126.729,141.941,142.763
0.319,23.353,6.195,6.210,126.714,141.946,142.728
0.320,23.397,6.175,6.202,126.698,141.949,142.687
0.322,23.447,6.151,6.190,126.682,141.949,142.640
0.323,23.502,6.125,6.171,126.666,141.944,142.588
0.324,23.561,6.095,6.145,126.650,141.934,142.532
0.326,23.626,6.063,6.112,126.633,141.916,142.471
0.327,23.697,6.029,6.073,126.617,141.889,142.408
0.328,23.774,5.993,6.030,126.602,141.852,142.342
0.329,23.859,5.956,5.983,126.587,141.804,142.274
0.331,23.952,5.917,5.934,126.572,141.747,142.202
0.332,24.054,5.876,5.884,126.558,141.681,142.126
0.333,24.164,5.835,5.835,126.544,141.609,142.043
0.335,24.284,5.793,5.786,126.529,141.531,141.953
0.336,24.413,5.748,5.738,126.515,141.450,141.854
0.337,24.551,5.701,5.689,126.499,141.368,141.745
0.339,24.698,5.649,5.637,126.484,141.285,141.624
0.340,24.856,5.591,5.580,126.467,141.203,141.489
0.341,25.026,5.526,5.518,126.450,141.125,141.340
0.342,25.208,5.453,5.450,126.431,141.051,141.174
0.344,25.404,5.371,5.373,126.411,140.984,140.991
0.345,25.615,5.280,5.288,126.390,140.924,140.790
0.346,25.841,5.182,5.196,126.367,140.871,140.572
0.348,26.080,5.079,5.100,126.344,140.823,140.339
0.349,26.330,4.976,5.003,126.321,140.781,140.094
0.350,26.589,4.875,4.907,126.297,140.742,139.838
0.352,26.856,4.778,4.814,126.274,140.706,139.575
0.353,27.129,4.689,4.727,126.251,140.671,139.305
0.354,27.404,4.611,4.648,126.230,140.637,139.033
0.355,27.682,4.544,4.579,126.210,140.603,138.758
0.357,27.958,4.490,4.520,126.192,140.568,138.485
0.358,28.232,4.447,4.471,126.177,140.530,138.214
0.359,28.501,4.416,4.434,126.164,140.489,137.949
0.361,28.763,4.397,4.409,126.153,140.443,137.690
0.362,29.018,4.389,4.395,126.146,140.395,137.440
0.363,29.264,4.393,4.394,126.141,140.343,137.200
0.365,29.501,4.409,4.407,126.137,140.290,136.969
0.366,29.726,4.435,4.430,126.136,140.237,136.750
0.367,29.941,4.468,4.463,126.136,140.183,136.542
0.368,30.142,4.507,4.503,126.137,140.131,136.348
0.370,30.329,4.550,4.546,126.139,140.080,136.168
0.371,30.501,4.594,4.592,126.142,140.033,136.003
0.372,30.656,4.638,4.637,126.144,139.989,135.853
0.374,30.794,4.679,4.679,126.147,139.951,135.721
0.375,30.914,4.715,4.716,126.149,139.918,135.606
0.376,31.013,4.746,4.747,126.150,139.891,135.510
0.378,31.095,4.772,4.774,126.151,139.871,135.431
0.379,31.160,4.794,4.795,126.152,139.856,135.367
0.380,31.211,4.811,4.812,126.152,139.846,135.318
0.382,31.248,4.824,4.824,126.151,139.841,135.281
0.383,31.275,4.832,4.832,126.151,139.840,135.255
0.384,31.292,4.836,4.836,126.151,139.842,135.238
0.385,31.302,4.836,4.836,126.151,139.847,135.228
0.387,31.310,4.833,4.833,126.152,139.854,135.225
0.388,31.319,4.828,4.828,126.153,139.863,135.227
0.389,31.330,4.821,4.822,126.155,139.873,135.231
0.391,31.343,4.814,4.814,126.157,139.884,135.236
0.392,31.355,4.806,4.806,126.160,139.895,135.242
0.393,31.367,4.799,4.799,126.164,139.905,135.247
0.395,31.378,4.794,4.794,126.168,139.914,135.251
0.396,31.388,4.791,4.790,126.172,139.922,135.253
0.397,31.395,4.789,4.789,126.176,139.928,135.254
0.398,31.399,4.790,4.789,126.179,139.931,135.253
0.400,31.403,4.793,4.791,126.181,139.932,135.249
0.401,31.411,4.797,4.796,126.181,139.928,135.242
0.402,31.424,4.804,4.803,126.180,139.920,135.232
0.404,31.443,4.812,4.812,126.177,139.907,135.219
0.405,31.469,4.823,4.823,126.171,139.889,135.201
0.406,31.502,4.835,4.837,126.163,139.865,135.179
0.408,31.544,4.848,4.853,126.152,139.835,135.153
0.409,31.594,4.862,4.870,126.139,139.800,135.120
0.410,31.651,4.877,4.888,126.124,139.763,135.079
0.411,31.716,4.892,4.907,126.109,139.724,135.029
0.413,31.789,4.907,4.926,126.094,139.685,134.969
0.414,31.871,4.921,4.945,126.080,139.649,134.897
0.415,31.963,4.934,4.964,126.068,139.616,134.812
0.417,32.066,4.948,4.984,126.058,139.589,134.712
0.418,32.184,4.963,5.005,126.052,139.569,134.596
0.419,32.318,4.981,5.029,126.051,139.559,134.463
0.421,32.471,5.004,5.056,126.054,139.559,134.311
0.422,32.644,5.032,5.088,126.064,139.571,134.138
0.423,32.840,5.067,5.125,126.079,139.597,133.944
0.424,33.055,5.110,5.169,126.101,139.635,133.733
0.426,33.285,5.162,5.219,126.127,139.684,133.510
0.427,33.525,5.220,5.275,126.157,139.740,133.279
0.428,33.769,5.282,5.334,126.190,139.801,133.045
0.430,34.013,5.345,5.395,126.224,139.867,132.813
0.431,34.252,5.406,5.455,126.259,139.934,132.586
0.432,34.480,5.463,5.514,126.294,140.001,132.371
0.434,34.692,5.514,5.569,126.327,140.065,132.171
0.435,34.884,5.556,5.618,126.357,140.125,131.992
0.436,35.049,5.587,5.661,126.385,140.178,131.837
0.438,35.184,5.610,5.697,126.407,140.222,131.712
0.439,35.284,5.626,5.728,126.425,140.256,131.620
0.440,35.351,5.637,5.752,126.437,140.280,131.558
0.441,35.392,5.644,5.771,126.446,140.295,131.522
0.443,35.409,5.649,5.783,126.450,140.303,131.506
0.444,35.412,5.653,5.791,126.452,140.305,131.508
0.445,35.428,5.658,5.792,126.450,140.301,131.523
0.447,35.452,5.664,5.790,126.447,140.293,131.546
0.448,35.482,5.671,5.785,126.442,140.281,131.574
0.449,35.513,5.678,5.778,126.437,140.268,131.601
0.451,35.541,5.685,5.771,126.431,140.254,131.624
0.452,35.562,5.692,5.766,126.425,140.240,131.638
0.453,35.575,5.699,5.765,126.420,140.228,131.640
0.454,35.594,5.704,5.767,126.417,140.217,131.625
0.456,35.626,5.707,5.776,126.414,140.210,131.594
0.457,35.672,5.710,5.789,126.411,140.205,131.548
0.458,35.730,5.711,5.806,126.407,140.203,131.489
0.460,35.801,5.713,5.823,126.401,140.204,131.419
0.461,35.883,5.715,5.840,126.392,140.208,131.337
0.462,35.974,5.718,5.855,126.380,140.216,131.247
0.464,36.074,5.722,5.866,126.364,140.226,131.149
0.465,36.182,5.727,5.870,126.343,140.241,131.045
0.466,36.296,5.735,5.869,126.316,140.259,130.935
0.467,36.417,5.744,5.862,126.282,140.280,130.822
0.469,36.542,5.756,5.853,126.240,140.306,130.706
0.470,36.672,5.770,5.844,126.191,140.335,130.589
0.471,36.806,5.787,5.836,126.136,140.367,130.472
0.473,36.941,5.805,5.832,126.076,140.399,130.355
0.474,37.077,5.826,5.835,126.014,140.430,130.238
0.475,37.212,5.849,5.845,125.951,140.458,130.122
0.477,37.343,5.875,5.864,125.890,140.481,130.008
0.478,37.470,5.901,5.889,125.832,140.498,129.896
0.479,37.592,5.928,5.918,125.780,140.507,129.787
0.480,37.707,5.955,5.949,125.735,140.505,129.681
0.482,37.816,5.981,5.980,125.699,140.492,129.578
0.483,37.921,6.006,6.007,125.675,140.466,129.480
0.484,38.025,6.028,6.029,125.664,140.424,129.386
0.486,38.131,6.047,6.044,125.668,140.365,129.297
0.487,38.246,6.063,6.052,125.684,140.290,129.211
0.488,38.371,6.076,6.056,125.709,140.200,129.127
0.490,38.509,6.086,6.058,125.739,140.096,129.044
0.491,38.659,6.093,6.061,125.773,139.977,128.958
0.492,38.821,6.098,6.067,125.807,139.845,128.869
0.493,38.996,6.102,6.079,125.837,139.701,128.775
0.495,39.182,6.103,6.100,125.860,139.546,128.675
0.496,39.382,6.103,6.131,125.875,139.380,128.565
0.497,39.594,6.103,6.171,125.876,139.204,128.446
0.499,39.822,6.106,6.219,125.862,139.019,128.315
0.500,40.066,6.113,6.272,125.829,138.826,128.170
0.501,40.327,6.127,6.329,125.774,138.626,128.010
0.503,40.604,6.150,6.386,125.702,138.420,127.839
0.504,40.892,6.183,6.443,125.614,138.213,127.659
0.505,41.187,6.230,6.497,125.514,138.007,127.474
0.507,41.483,6.290,6.545,125.406,137.804,127.288
0.508,41.775,6.359,6.589,125.292,137.608,127.104
0.509,42.058,6.435,6.628,125.177,137.420,126.925
0.510,42.327,6.511,6.661,125.064,137.245,126.756
0.512,42.577,6.584,6.688,124.955,137.084,126.598
0.513,42.802,6.650,6.709,124.855,136.940,126.457
0.514,42.997,6.704,6.724,124.767,136.817,126.335
0.516,43.156,6.741,6.732,124.693,136.716,126.236
0.517,43.276,6.761,6.734,124.637,136.640,126.162
0.518,43.359,6.767,6.731,124.598,136.587,126.111
0.520,43.411,6.761,6.725,124.573,136.554,126.080
0.521,43.435,6.748,6.717,124.561,136.538,126.067
0.522,43.438,6.731,6.708,124.559,136.536,126.068
0.523,43.454,6.713,6.700,124.566,136.545,126.080
0.525,43.484,6.698,6.694,124.579,136.563,126.100
0.526,43.522,6.688,6.692,124.597,136.586,126.125
0.527,43.565,6.686,6.694,124.618,136.611,126.152
0.529,43.607,6.689,6.699,124.639,136.637,126.177
0.530,43.644,6.696,6.706,124.659,136.659,126.199
