"T","Distance","Radius","FreeRadius","X","Y","Z"
0.000,0.000,2.829,2.829,208.488,193.869,185.213
0.001,0.015,2.845,2.845,208.490,193.878,185.224
0.002,0.030,2.861,2.861,208.493,193.888,185.236
0.004,0.046,2.878,2.878,208.497,193.896,185.249
0.005,0.063,2.895,2.895,208.501,193.904,185.263
0.006,0.080,2.913,2.913,208.507,193.910,185.278
0.007,0.100,2.931,2.931,208.514,193.914,185.296
0.008,0.123,2.951,2.951,208.524,193.917,185.317
0.010,0.149,2.971,2.971,208.536,193.917,185.340
0.011,0.180,2.993,2.993,208.550,193.914,185.367
0.012,0.216,3.015,3.015,208.567,193.909,185.398
0.013,0.258,3.039,3.039,208.588,193.899,185.433
0.014,0.306,3.064,3.064,208.612,193.886,185.473
0.015,0.361,3.091,3.091,208.640,193.870,185.518
0.017,0.423,3.118,3.118,208.671,193.851,185.567
0.018,0.490,3.146,3.146,208.706,193.829,185.620
0.019,0.562,3.175,3.175,208.744,193.805,185.677
0.020,0.639,3.205,3.205,208.785,193.780,185.737
0.021,0.720,3.236,3.236,208.829,193.755,185.800
0.023,0.804,3.267,3.267,208.876,193.729,185.865
0.024,0.891,3.298,3.298,208.925,193.705,185.933
0.025,0.981,3.328,3.328,208.977,193.681,186.002
0.026,1.072,3.357,3.357,209.031,193.660,186.072
0.027,1.165,3.384,3.384,209.087,193.641,186.144
0.029,1.259,3.408,3.408,209.145,193.625,186.216
0.030,1.354,3.430,3.430,209.205,193.611,186.288
0.031,1.450,3.448,3.448,209.267,193.599,186.360
0.032,1.547,3.463,3.463,209.330,193.587,186.433
0.033,1.645,3.476,3.476,209.395,193.575,186.505
0.035,1.744,3.488,3.488,209.462,193.561,186.577
0.036,1.844,3.502,3.502,209.531,193.546,186.648
0.037,1.945,3.517,3.517,209.601,193.528,186.719
0.038,2.047,3.536,3.536,209.672,193.506,186.789
0.039,2.151,3.559,3.559,209.745,193.480,186.858
0.040,2.256,3.589,3.589,209.819,193.448,186.925
0.042,2.363,3.624,3.624,209.895,193.410,186.991
0.043,2.472,3.665,3.665,209.971,193.366,187.056
0.044,2.582,3.710,3.710,210.046,193.317,187.118
0.045,2.689,3.756,3.756,210.120,193.266,187.177
0.046,2.794,3.802,3.802,210.191,193.212,187.233
0.048,2.894,3.846,3.846,210.257,193.159,187.285
0.049,2.988,3.886,3.886,210.319,193.107,187.333
0.050,3.073,3.921,3.921,210.374,193.058,187.376
0.051,3.149,3.949,3.949,210.421,193.012,187.414
0.052,3.212,3.970,3.970,210.459,192.973,187.446
0.054,3.262,3.984,3.984,210.487,192.941,187.471
0.055,3.296,3.993,3.993,210.504,192.917,187.490
0.056,3.315,3.997,3.997,210.509,192.903,187.501
0.057,3.324,3.998,3.998,210.504,192.898,187.506
0.058,3.336,3.997,3.997,210.492,192.899,187.507
0.060,3.353,3.994,3.994,210.477,192.906,187.504
0.061,3.373,3.990,3.990,210.461,192.917,187.499
0.062,3.393,3.988,3.988,210.447,192.930,187.493
0.063,3.410,3.986,3.986,210.438,192.944,187.488
0.064,3.423,3.986,3.986,210.437,192.956,187.485
0.065,3.437,3.989,3.989,210.447,192.967,187.485
0.067,3.462,3.994,3.994,210.471,192.973,187.490
0.068,3.505,4.004,4.004,210.512,192.973,187.501
0.069,3.568,4.017,4.017,210.573,192.966,187.520
0.070,3.654,4.036,4.036,210.653,192.952,187.546
0.071,3.758,4.061,4.061,210.750,192.931,187.578
0.073,3.877,4.090,4.090,210.859,192.906,187.615
0.074,4.006,4.124,4.124,210.979,192.877,187.655
0.075,4.143,4.160,4.160,211.105,192.845,187.698
0.076,4.283,4.198,4.198,211.234,192.813,187.742
0.077,4.422,4.236,4.236,211.363,192.780,187.785
0.079,4.558,4.273,4.273,211.488,192.750,187.826
0.080,4.685,4.309,4.309,211.605,192.722,187.865
0.081,4.800,4.341,4.341,211.713,192.698,187.899
0.082,4.899,4.369,4.369,211.807,192.680,187.927
0.083,4.981,4.393,4.393,211.884,192.668,187.949
0.085,5.044,4.413,4.413,211.946,192.662,187.964
0.086,5.093,4.429,4.429,211.993,192.662,187.974
0.087,5.129,4.440,4.440,212.028,192.666,187.980
0.088,5.155,4.448,4.448,212.053,192.673,187.982
0.089,5.173,4.452,4.452,212.068,192.684,187.981
0.090,5.188,4.453,4.453,212.076,192.696,187.979
0.092,5.202,4.449,4.449,212.078,192.710,187.976
0.093,5.217,4.442,4.442,212.075,192.725,187.973
0.094,5.232,4.433,4.433,212.070,192.739,187.971
0.095,5.246,4.422,4.422,212.064,192.751,187.972
0.096,5.259,4.410,4.410,212.059,192.762,187.975
0.098,5.270,4.397,4.397,212.055,192.771,187.982
0.099,5.283,4.384,4.384,212.055,192.778,187.992
0.100,5.299,4.372,4.372,212.058,192.782,188.007
0.101,5.321,4.362,4.362,212.067,192.785,188.027
0.102,5.350,4.354,4.354,212.082,192.786,188.052
0.104,5.388,4.348,4.348,212.104,192.785,188.083
0.105,5.435,4.344,4.344,212.134,192.784,188.120
0.106,5.494,4.343,4.343,212.174,192.780,188.163
0.107,5.564,4.345,4.345,212.223,192.776,188.213
0.108,5.648,4.349,4.349,212.284,192.771,188.270
0.110,5.745,4.356,4.356,212.357,192.765,188.334
0.111,5.858,4.366,4.366,212.443,192.759,188.407
0.112,5.983,4.380,4.380,212.540,192.752,188.485
0.113,6.117,4.395,4.395,212.645,192.744,188.569
0.114,6.258,4.412,4.412,212.756,192.736,188.656
0.115,6.403,4.428,4.428,212.870,192.728,188.744
0.117,6.547,4.443,4.443,212.984,192.719,188.832
0.118,6.690,4.454,4.454,213.097,192.710,188.918
0.119,6.826,4.461,4.461,213.205,192.701,189.001
0.120,6.954,4.462,4.462,213.306,192.692,189.079
0.121,7.070,4.456,4.456,213.398,192.682,189.150
0.123,7.171,4.443,4.443,213.477,192.673,189.212
0.124,7.255,4.423,4.423,213.541,192.664,189.264
0.125,7.320,4.400,4.400,213.590,192.655,189.306
0.126,7.368,4.376,4.376,213.625,192.646,189.338
0.127,7.401,4.351,4.351,213.647,192.638,189.361
0.129,7.420,4.330,4.330,213.659,192.631,189.376
0.130,7.430,4.313,4.313,213.660,192.626,189.383
0.131,7.437,4.303,4.303,213.654,192.622,189.384
0.132,7.451,4.301,4.301,213.641,192.620,189.379
0.133,7.472,4.308,4.308,213.623,192.620,189.369
0.135,7.497,4.320,4.320,213.602,192.622,189.355
0.136,7.526,4.337,4.337,213.579,192.627,189.338
0.137,7.558,4.355,4.355,213.555,192.635,189.319
0.138,7.591,4.373,4.373,213.532,192.646,189.298
0.139,7.622,4.389,4.389,213.513,192.658,189.277
0.140,7.648,4.400,4.400,213.501,192.669,189.256
0.142,7.669,4.405,4.405,213.498,192.679,189.238
0.143,7.688,4.403,4.403,213.506,192.684,189.222
0.144,7.714,4.394,4.394,213.529,192.683,189.211
0.145,7.756,4.380,4.380,213.570,192.674,189.205
0.146,7.819,4.361,4.361,213.631,192.656,189.206
0.148,7.909,4.340,4.340,213.715,192.625,189.215
0.149,8.028,4.316,4.316,213.824,192.582,189.232
0.150,8.180,4.292,4.292,213.962,192.522,189.260
0.151,8.370,4.269,4.269,214.131,192.446,189.299
0.152,8.594,4.247,4.247,214.329,192.353,189.348
0.154,8.846,4.228,4.228,214.549,192.246,189.407
0.155,9.116,4.211,4.211,214.785,192.130,189.472
0.156,9.397,4.197,4.197,215.028,192.008,189.541
0.157,9.681,4.185,4.185,215.272,191.883,189.612
0.158,9.958,4.176,4.176,215.510,191.760,189.683
0.160,10.220,4.170,4.170,215.733,191.641,189.752
0.161,10.459,4.168,4.168,215.936,191.531,189.816
0.162,10.667,4.169,4.169,216.110,191.432,189.873
0.163,10.835,4.173,4.173,216.248,191.350,189.920
0.164,10.956,4.179,4.179,216.344,191.286,189.956
0.165,11.023,4.186,4.186,216.391,191.244,189.979
0.167,11.049,4.193,4.193,216.398,191.221,189.991
0.168,11.075,4.198,4.198,216.373,191.215,189.992
0.169,11.121,4.202,4.202,216.328,191.221,189.987
0.170,11.179,4.201,4.201,216.271,191.235,189.977
0.171,11.240,4.196,4.196,216.215,191.254,189.965
0.173,11.292,4.186,4.186,216.169,191.273,189.952
0.174,11.325,4.172,4.172,216.142,191.290,189.942
0.175,11.338,4.160,4.160,216.146,191.301,189.937
0.176,11.382,4.153,4.153,216.191,191.301,189.938
0.177,11.480,4.155,4.155,216.287,191.287,189.949
0.179,11.641,4.172,4.172,216.443,191.256,189.971
0.180,11.868,4.207,4.207,216.662,191.206,190.006
0.181,12.151,4.264,4.264,216.934,191.140,190.052
0.182,12.479,4.347,4.347,217.247,191.060,190.107
0.183,12.842,4.458,4.458,217.593,190.969,190.170
0.185,13.229,4.589,4.589,217.960,190.870,190.239
0.186,13.628,4.736,4.736,218.338,190.765,190.314
0.187,14.029,4.892,4.892,218.716,190.656,190.391
0.188,14.422,5.050,5.050,219.085,190.547,190.471
0.189,14.796,5.203,5.203,219.434,190.440,190.552
0.190,15.139,5.347,5.347,219.752,190.338,190.631
0.192,15.442,5.473,5.473,220.029,190.243,190.708
0.193,15.697,5.577,5.577,220.258,190.157,190.782
0.194,15.905,5.658,5.658,220.438,190.081,190.851
0.195,16.072,5.720,5.720,220.576,190.013,190.916
0.196,16.203,5.766,5.766,220.676,189.954,190.977
0.198,16.306,5.798,5.798,220.745,189.902,191.034
0.199,16.387,5.819,5.819,220.785,189.857,191.087
0.200,16.452,5.832,5.832,220.804,189.819,191.136
0.201,16.507,5.841,5.841,220.805,189.786,191.181
0.202,16.558,5.848,5.848,220.795,189.759,191.222
0.204,16.605,5.854,5.854,220.777,189.736,191.259
0.205,16.647,5.861,5.861,220.758,189.716,191.292
0.206,16.684,5.869,5.869,220.741,189.700,191.321
0.207,16.715,5.877,5.877,220.731,189.687,191.346
0.208,16.740,5.885,5.885,220.726,189.675,191.369
0.210,16.763,5.895,5.895,220.726,189.664,191.389
0.211,16.785,5.906,5.906,220.729,189.653,191.407
0.212,16.807,5.919,5.919,220.737,189.642,191.425
0.213,16.831,5.933,5.933,220.747,189.629,191.443
0.214,16.858,5.948,5.948,220.759,189.614,191.461
0.215,16.889,5.964,5.964,220.774,189.596,191.481
0.217,16.923,5.981,5.981,220.789,189.574,191.503
0.218,16.963,5.998,5.998,220.804,189.548,191.529
0.219,17.009,6.016,6.016,220.820,189.516,191.558
0.220,17.061,6.033,6.033,220.834,189.478,191.591
0.221,17.120,6.050,6.050,220.848,189.435,191.628
0.223,17.183,6.066,6.066,220.861,189.388,191.668
0.224,17.250,6.081,6.081,220.874,189.337,191.710
0.225,17.320,6.095,6.095,220.886,189.285,191.755
0.226,17.390,6.108,6.108,220.899,189.232,191.800
0.227,17.460,6.121,6.121,220.912,189.180,191.845
0.229,17.529,6.132,6.132,220.925,189.129,191.889
0.230,17.595,6.142,6.142,220.938,189.082,191.932
0.231,17.657,6.152,6.152,220.952,189.038,191.973
0.232,17.713,6.160,6.160,220.968,188.999,192.011
0.233,17.763,6.168,6.168,220.984,188.966,192.045
0.235,17.807,6.174,6.174,221.001,188.940,192.076
0.236,17.845,6.180,6.180,221.020,188.920,192.103
0.237,17.879,6.185,6.186,221.039,188.905,192.126
0.238,17.909,6.190,6.190,221.059,188.896,192.147
0.239,17.937,6.195,6.195,221.079,188.890,192.166
0.240,17.964,6.199,6.199,221.100,188.888,192.182
0.242,17.989,6.204,6.204,221.120,188.888,192.197
0.243,18.014,6.208,6.208,221.141,188.891,192.210
0.244,18.038,6.213,6.213,221.162,188.896,192.222
0.245,18.062,6.218,6.217,221.182,188.901,192.234
0.246,18.086,6.222,6.221,221.202,188.907,192.245
0.248,18.109,6.226,6.224,221.221,188.912,192.257
0.249,18.131,6.228,6.227,221.239,188.917,192.269
0.250,18.152,6.230,6.229,221.256,188.922,192.280
0.251,18.172,6.231,6.230,221.273,188.926,192.291
0.252,18.191,6.230,6.230,221.288,188.930,192.301
0.254,18.208,6.227,6.228,221.302,188.934,192.310
0.255,18.223,6.223,6.225,221.314,188.937,192.317
0.256,18.235,6.218,6.221,221.325,188.940,192.323
0.257,18.246,6.212,6.218,221.334,188.943,192.327
0.258,18.254,6.207,6.214,221.342,188.945,192.329
0.260,18.260,6.202,6.211,221.347,188.948,192.329
0.261,18.265,6.198,6.209,221.351,188.949,192.326
0.262,18.271,6.196,6.209,221.353,188.951,192.320
0.263,18.279,6.196,6.210,221.353,188.952,192.313
0.264,18.286,6.197,6.214,221.352,188.954,192.305
0.265,18.294,6.200,6.218,221.350,188.954,192.297
0.267,18.301,6.204,6.222,221.348,188.955,192.291
0.268,18.305,6.207,6.225,221.346,188.955,192.287
0.269,18.307,6.209,6.227,221.345,188.954,192.286
0.270,18.310,6.209,6.226,221.345,188.953,192.290
0.271,18.318,6.206,6.222,221.346,188.952,192.298
0.273,18.333,6.200,6.213,221.349,188.950,192.312
0.274,18.355,6.191,6.199,221.354,188.948,192.334
0.275,18.385,6.177,6.181,221.362,188.945,192.362
0.276,18.423,6.161,6.160,221.373,188.941,192.398
0.277,18.466,6.142,6.137,221.388,188.936,192.439
0.279,18.516,6.121,6.114,221.407,188.930,192.484
0.280,18.570,6.099,6.090,221.432,188.923,192.531
0.281,18.628,6.076,6.068,221.463,188.914,192.579
0.282,18.690,6.052,6.048,221.500,188.903,192.628
0.283,18.755,6.029,6.033,221.545,188.891,192.674
0.285,18.825,6.006,6.020,221.598,188.876,192.717
0.286,18.900,5.983,6.011,221.660,188.858,192.755
0.287,18.980,5.960,6.002,221.731,188.838,192.788
0.288,19.068,5.935,5.992,221.811,188.816,192.813
0.289,19.164,5.909,5.981,221.902,188.790,192.830
0.290,19.266,5.880,5.967,222.000,188.763,192.841
0.292,19.374,5.849,5.947,222.104,188.734,192.846
0.293,19.485,5.814,5.922,222.211,188.705,192.848
0.294,19.596,5.776,5.889,222.319,188.676,192.848
0.295,19.707,5.736,5.852,222.426,188.648,192.846
0.296,19.815,5.694,5.811,222.530,188.622,192.845
0.298,19.916,5.653,5.771,222.629,188.598,192.846
0.299,20.010,5.613,5.734,222.720,188.578,192.850
0.300,20.094,5.576,5.702,222.802,188.561,192.859
0.301,20.167,5.544,5.678,222.873,188.549,192.873
0.302,20.229,5.518,5.664,222.930,188.543,192.895
0.304,20.283,5.499,5.664,222.975,188.541,192.925
0.305,20.335,5.488,5.677,223.011,188.544,192.963
0.306,20.390,5.481,5.700,223.039,188.551,193.010
0.307,20.452,5.476,5.730,223.063,188.562,193.066
0.308,20.523,5.472,5.765,223.085,188.575,193.132
0.310,20.604,5.465,5.801,223.107,188.592,193.208
0.311,20.696,5.455,5.835,223.132,188.610,193.294
0.312,20.800,5.437,5.865,223.162,188.630,193.392
0.313,20.917,5.411,5.886,223.200,188.652,193.501
0.314,21.049,5.374,5.897,223.248,188.674,193.622
0.315,21.197,5.327,5.895,223.309,188.696,193.755
0.317,21.360,5.272,5.881,223.383,188.716,193.899
0.318,21.536,5.208,5.851,223.471,188.734,194.051
0.319,21.721,5.139,5.804,223.570,188.746,194.206
0.320,21.912,5.064,5.741,223.680,188.750,194.362
0.321,22.106,4.985,5.658,223.799,188.744,194.514
0.323,22.300,4.904,5.555,223.928,188.725,194.659
0.324,22.494,4.821,5.431,224.064,188.692,194.793
0.325,22.687,4.738,5.287,224.207,188.641,194.912
0.326,22.879,4.655,5.128,224.355,188.570,195.012
0.327,23.074,4.571,4.960,224.508,188.478,195.091
0.329,23.276,4.488,4.789,224.664,188.362,195.143
0.330,23.490,4.406,4.619,224.823,188.220,195.167
0.331,23.722,4.326,4.455,224.985,188.054,195.163
0.332,23.973,4.246,4.304,225.152,187.869,195.136
0.333,24.243,4.169,4.169,225.325,187.668,195.089
0.335,24.528,4.095,4.056,225.506,187.455,195.026
0.336,24.828,4.023,3.963,225.694,187.234,194.951
0.337,25.139,3.954,3.886,225.893,187.010,194.868
0.338,25.459,3.888,3.824,226.102,186.785,194.780
0.339,25.784,3.827,3.773,226.324,186.565,194.691
0.340,26.113,3.769,3.731,226.559,186.352,194.604
0.342,26.444,3.717,3.695,226.809,186.151,194.524
0.343,26.775,3.668,3.663,227.076,185.966,194.455
0.344,27.108,3.626,3.630,227.357,185.798,194.397
0.345,27.438,3.588,3.598,227.648,185.649,194.350
0.346,27.764,3.556,3.566,227.943,185.517,194.312
0.348,28.081,3.529,3.537,228.237,185.402,194.281
0.349,28.385,3.506,3.511,228.524,185.304,194.257
0.350,28.672,3.489,3.490,228.798,185.222,194.237
0.351,28.938,3.477,3.475,229.055,185.156,194.220
0.352,29.177,3.469,3.466,229.289,185.106,194.204
0.354,29.385,3.466,3.466,229.493,185.070,194.188
0.355,29.557,3.467,3.475,229.663,185.050,194.170
0.356,29.690,3.471,3.490,229.793,185.044,194.148
0.357,29.780,3.477,3.509,229.879,185.052,194.122
0.358,29.837,3.483,3.530,229.926,185.070,194.093
0.360,29.879,3.489,3.550,229.941,185.095,194.064
0.361,29.918,3.491,3.565,229.932,185.121,194.036
0.362,29.959,3.490,3.574,229.909,185.147,194.013
0.363,29.999,3.484,3.574,229.878,185.166,193.997
0.364,30.030,3.471,3.562,229.849,185.175,193.992
0.365,30.051,3.453,3.539,229.829,185.169,193.998
0.367,30.083,3.434,3.511,229.827,185.146,194.020
0.368,30.148,3.417,3.482,229.850,185.099,194.059
0.369,30.259,3.406,3.458,229.908,185.026,194.118
0.370,30.424,3.405,3.442,230.008,184.923,194.200
0.371,30.648,3.418,3.440,230.152,184.787,194.305
0.373,30.922,3.448,3.457,230.335,184.625,194.429
0.374,31.237,3.499,3.498,230.548,184.441,194.570
0.375,31.583,3.573,3.566,230.786,184.241,194.722
0.376,31.950,3.667,3.656,231.039,184.030,194.883
0.377,32.328,3.776,3.763,231.301,183.813,195.049
0.379,32.709,3.896,3.884,231.565,183.595,195.215
0.380,33.082,4.021,4.011,231.824,183.382,195.379
0.381,33.438,4.148,4.140,232.069,183.178,195.537
0.382,33.766,4.271,4.267,232.294,182.990,195.684
0.383,34.058,4.386,4.385,232.492,182.822,195.818
0.385,34.305,4.488,4.489,232.656,182.678,195.934
0.386,34.507,4.577,4.579,232.786,182.559,196.033
0.387,34.670,4.652,4.655,232.887,182.463,196.115
0.388,34.796,4.715,4.718,232.961,182.387,196.183
0.389,34.890,4.766,4.769,233.013,182.329,196.237
0.390,34.958,4.807,4.809,233.046,182.287,196.278
0.392,35.002,4.838,4.840,233.064,182.260,196.308
0.393,35.028,4.861,4.861,233.069,182.244,196.328
0.394,35.040,4.876,4.876,233.067,182.238,196.339
0.395,35.048,4.884,4.883,233.060,182.239,196.341
0.396,35.060,4.886,4.886,233.051,182.246,196.338
0.398,35.075,4.885,4.884,233.046,182.256,196.329
0.399,35.092,4.880,4.879,233.045,182.268,196.316
0.400,35.110,4.873,4.873,233.048,182.279,196.302
0.401,35.129,4.866,4.866,233.057,182.290,196.290
0.402,35.147,4.860,4.860,233.071,182.299,196.282
0.404,35.166,4.855,4.855,233.090,182.305,196.282
0.405,35.192,4.853,4.853,233.113,182.306,196.293
0.406,35.229,4.856,4.856,233.141,182.302,196.316
0.407,35.281,4.863,4.863,233.174,182.291,196.355
0.408,35.352,4.875,4.874,233.212,182.272,196.412
0.410,35.446,4.892,4.891,233.254,182.243,196.491
0.411,35.566,4.915,4.915,233.301,182.205,196.594
0.412,35.714,4.945,4.944,233.353,182.156,196.724
0.413,35.887,4.982,4.981,233.409,182.096,196.877
0.414,36.081,5.026,5.026,233.468,182.030,197.049
0.415,36.290,5.078,5.079,233.531,181.958,197.235
0.417,36.510,5.136,5.138,233.596,181.884,197.431
0.418,36.734,5.200,5.202,233.664,181.810,197.632
0.419,36.958,5.267,5.269,233.733,181.737,197.832
0.420,37.176,5.337,5.339,233.804,181.669,198.027
0.421,37.385,5.408,5.410,233.875,181.608,198.213
0.423,37.578,5.478,5.479,233.947,181.557,198.385
0.424,37.750,5.546,5.547,234.018,181.517,198.537
0.425,37.899,5.612,5.611,234.089,181.491,198.665
0.426,38.024,5.673,5.670,234.159,181.479,198.768
0.427,38.130,5.730,5.725,234.229,181.477,198.847
0.429,38.222,5.782,5.774,234.300,181.482,198.906
0.430,38.306,5.827,5.819,234.372,181.489,198.949
0.431,38.386,5.866,5.857,234.447,181.494,198.977
0.432,38.466,5.898,5.890,234.524,181.493,198.995
0.433,38.548,5.922,5.917,234.606,181.482,199.006
0.435,38.638,5.937,5.938,234.691,181.456,199.012
0.436,38.739,5.944,5.953,234.782,181.412,199.018
0.437,38.857,5.943,5.961,234.880,181.346,199.025
0.438,38.997,5.936,5.965,234.984,181.253,199.038
0.439,39.165,5.923,5.965,235.095,181.130,199.060
0.440,39.358,5.908,5.961,235.213,180.980,199.089
0.442,39.574,5.889,5.954,235.335,180.806,199.125
0.443,39.806,5.870,5.946,235.461,180.614,199.167
0.444,40.051,5.851,5.936,235.587,180.409,199.213
0.445,40.304,5.834,5.926,235.712,180.196,199.263
0.446,40.558,5.819,5.916,235.835,179.979,199.314
0.448,40.809,5.806,5.905,235.953,179.764,199.365
0.449,41.052,5.795,5.896,236.066,179.555,199.416
0.450,41.281,5.786,5.887,236.170,179.357,199.465
0.451,41.491,5.780,5.879,236.265,179.175,199.510
0.452,41.676,5.776,5.873,236.348,179.014,199.551
0.454,41.835,5.774,5.868,236.418,178.876,199.586
0.455,41.971,5.775,5.865,236.479,178.759,199.617
0.456,42.086,5.777,5.865,236.530,178.659,199.644
0.457,42.185,5.782,5.866,236.574,178.574,199.668
0.458,42.271,5.788,5.870,236.613,178.500,199.689
0.460,42.348,5.794,5.877,236.649,178.435,199.709
0.461,42.419,5.800,5.887,236.682,178.376,199.728
0.462,42.488,5.806,5.900,236.716,178.319,199.747
0.463,42.558,5.810,5.916,236.752,178.262,199.767
0.464,42.633,5.812,5.935,236.791,178.201,199.788
0.465,42.716,5.812,5.958,236.835,178.134,199.811
0.467,42.811,5.810,5.983,236.886,178.059,199.837
0.468,42.917,5.806,6.009,236.944,177.975,199.866
0.469,43.031,5.801,6.033,237.008,177.886,199.896
0.470,43.151,5.796,6.056,237.077,177.794,199.929
0.471,43.273,5.792,6.073,237.150,177.702,199.963
0.473,43.396,5.789,6.085,237.227,177.612,199.998
0.474,43.517,5.788,6.089,237.305,177.528,200.034
0.475,43.633,5.789,6.083,237.386,177.452,200.070
0.476,43.743,5.793,6.068,237.467,177.386,200.105
0.477,43.846,5.800,6.043,237.548,177.333,200.140
0.479,43.940,5.807,6.012,237.627,177.295,200.173
0.480,44.026,5.813,5.977,237.705,177.277,200.204
0.481,44.107,5.819,5.938,237.780,177.277,200.234
0.482,44.186,5.822,5.898,237.853,177.294,200.261
0.483,44.268,5.822,5.860,237.924,177.326,200.286
0.485,44.352,5.817,5.824,237.992,177.369,200.309
0.486,44.439,5.807,5.792,238.059,177.421,200.331
