"T","Distance","Radius","FreeRadius","X","Y","Z"
0.000,0.000,2.141,2.141,241.651,187.866,168.756
0.001,0.454,2.321,2.321,241.902,187.762,169.120
0.003,0.904,2.500,2.500,242.151,187.659,169.480
0.004,1.344,2.675,2.675,242.394,187.558,169.834
0.006,1.771,2.845,2.845,242.630,187.459,170.176
0.007,2.180,3.008,3.008,242.856,187.365,170.503
0.008,2.567,3.161,3.161,243.069,187.274,170.812
0.010,2.927,3.304,3.304,243.268,187.189,171.100
0.011,3.255,3.434,3.434,243.449,187.111,171.362
0.013,3.547,3.552,3.552,243.611,187.039,171.594
0.014,3.798,3.656,3.656,243.750,186.976,171.794
0.015,4.005,3.748,3.748,243.865,186.922,171.957
0.017,4.163,3.827,3.827,243.952,186.877,172.081
0.018,4.274,3.893,3.893,244.014,186.843,172.167
0.020,4.344,3.946,3.946,244.053,186.817,172.219
0.021,4.381,3.986,3.986,244.074,186.799,172.244
0.022,4.392,4.015,4.015,244.079,186.789,172.245
0.024,4.411,4.034,4.034,244.071,186.786,172.228
0.025,4.445,4.045,4.045,244.056,186.789,172.198
0.027,4.490,4.050,4.050,244.035,186.797,172.160
0.028,4.539,4.050,4.050,244.012,186.810,172.117
0.029,4.588,4.047,4.047,243.990,186.826,172.077
0.031,4.631,4.044,4.044,243.974,186.846,172.042
0.032,4.664,4.041,4.041,243.966,186.868,172.019
0.034,4.690,4.039,4.039,243.969,186.892,172.010
0.035,4.720,4.039,4.039,243.982,186.918,172.012
0.036,4.759,4.042,4.042,244.006,186.947,172.026
0.038,4.812,4.048,4.048,244.040,186.979,172.048
0.039,4.876,4.058,4.058,244.086,187.014,172.078
0.041,4.954,4.072,4.072,244.143,187.053,172.114
0.042,5.043,4.091,4.091,244.210,187.095,172.154
0.043,5.144,4.115,4.115,244.289,187.141,172.197
0.045,5.256,4.142,4.142,244.379,187.191,172.241
0.046,5.379,4.173,4.173,244.481,187.245,172.284
0.048,5.513,4.206,4.206,244.593,187.305,172.326
0.049,5.658,4.242,4.242,244.717,187.369,172.364
0.050,5.811,4.279,4.279,244.850,187.437,172.399
0.052,5.970,4.317,4.317,244.989,187.507,172.431
0.053,6.133,4.355,4.355,245.132,187.579,172.461
0.055,6.297,4.392,4.392,245.277,187.650,172.488
0.056,6.459,4.427,4.427,245.422,187.720,172.512
0.058,6.617,4.458,4.458,245.563,187.787,172.535
0.059,6.768,4.486,4.486,245.699,187.851,172.557
0.060,6.910,4.508,4.508,245.826,187.909,172.577
0.062,7.039,4.524,4.524,245.944,187.960,172.595
0.063,7.154,4.534,4.534,246.048,188.004,172.614
0.065,7.252,4.541,4.541,246.138,188.039,172.631
0.066,7.332,4.544,4.544,246.212,188.065,172.648
0.067,7.398,4.545,4.545,246.272,188.084,172.664
0.069,7.449,4.546,4.546,246.319,188.096,172.680
0.070,7.487,4.547,4.547,246.355,188.103,172.694
0.072,7.515,4.551,4.551,246.379,188.106,172.707
0.073,7.534,4.557,4.557,246.393,188.106,172.719
0.074,7.546,4.563,4.563,246.398,188.104,172.730
0.076,7.556,4.571,4.571,246.395,188.101,172.739
0.077,7.569,4.578,4.578,246.385,188.098,172.747
0.079,7.586,4.584,4.584,246.369,188.096,172.753
0.080,7.607,4.588,4.588,246.348,188.097,172.756
0.081,7.631,4.590,4.590,246.325,188.100,172.758
0.083,7.655,4.588,4.588,246.301,188.105,172.758
0.084,7.677,4.584,4.584,246.279,188.111,172.756
0.086,7.694,4.578,4.578,246.264,188.117,172.752
0.087,7.705,4.570,4.570,246.257,188.122,172.746
0.088,7.714,4.561,4.561,246.262,188.125,172.738
0.090,7.736,4.550,4.550,246.282,188.126,172.729
0.091,7.775,4.539,4.539,246.319,188.124,172.717
0.093,7.835,4.527,4.527,246.376,188.117,172.704
0.094,7.918,4.516,4.516,246.458,188.105,172.689
0.095,8.028,4.504,4.504,246.565,188.086,172.672
0.097,8.167,4.493,4.493,246.700,188.062,172.654
0.098,8.329,4.484,4.484,246.858,188.032,172.633
0.100,8.509,4.476,4.476,247.033,187.998,172.612
0.101,8.700,4.469,4.469,247.220,187.962,172.589
0.102,8.898,4.465,4.465,247.413,187.926,172.566
0.104,9.097,4.463,4.463,247.607,187.890,172.541
0.105,9.290,4.463,4.463,247.796,187.856,172.516
0.107,9.472,4.464,4.464,247.973,187.827,172.490
0.108,9.638,4.467,4.467,248.135,187.802,172.464
0.109,9.781,4.472,4.472,248.275,187.785,172.438
0.111,9.897,4.478,4.478,248.387,187.776,172.412
0.112,9.981,4.485,4.485,248.467,187.776,172.386
0.114,10.037,4.491,4.491,248.517,187.784,172.362
0.115,10.071,4.496,4.496,248.544,187.795,172.343
0.116,10.090,4.497,4.497,248.552,187.808,172.332
0.118,10.100,4.492,4.492,248.548,187.817,172.331
0.119,10.115,4.481,4.481,248.537,187.819,172.342
0.121,10.145,4.460,4.460,248.526,187.812,172.368
0.122,10.194,4.428,4.428,248.520,187.791,172.412
0.123,10.269,4.387,4.387,248.525,187.753,172.477
0.125,10.377,4.340,4.340,248.547,187.695,172.565
0.126,10.524,4.289,4.289,248.591,187.612,172.678
0.128,10.717,4.239,4.239,248.665,187.503,172.819
0.129,10.957,4.191,4.191,248.767,187.366,172.988
0.130,11.237,4.150,4.150,248.895,187.206,173.179
0.132,11.550,4.118,4.118,249.043,187.029,173.389
0.133,11.886,4.098,4.098,249.207,186.838,173.612
0.135,12.239,4.089,4.089,249.383,186.638,173.845
0.136,12.601,4.091,4.091,249.565,186.435,174.081
0.137,12.964,4.103,4.103,249.751,186.231,174.318
0.139,13.319,4.126,4.126,249.934,186.033,174.549
0.140,13.659,4.159,4.159,250.110,185.845,174.771
0.142,13.977,4.202,4.202,250.275,185.671,174.979
0.143,14.263,4.254,4.254,250.425,185.517,175.168
0.144,14.514,4.312,4.312,250.556,185.384,175.335
0.146,14.731,4.376,4.376,250.670,185.271,175.482
0.147,14.919,4.442,4.442,250.769,185.175,175.610
0.149,15.082,4.508,4.508,250.856,185.094,175.722
0.150,15.224,4.573,4.573,250.932,185.025,175.819
0.151,15.348,4.633,4.633,251.000,184.966,175.904
0.153,15.458,4.687,4.687,251.062,184.913,175.979
0.154,15.559,4.737,4.737,251.120,184.864,176.045
0.156,15.655,4.783,4.783,251.177,184.816,176.105
0.157,15.748,4.827,4.827,251.235,184.767,176.161
0.158,15.845,4.871,4.871,251.295,184.715,176.214
0.160,15.947,4.917,4.917,251.361,184.656,176.266
0.161,16.057,4.965,4.965,251.431,184.590,176.319
0.163,16.174,5.017,5.017,251.505,184.518,176.373
0.164,16.297,5.073,5.073,251.581,184.440,176.430
0.165,16.425,5.132,5.132,251.660,184.356,176.488
0.167,16.559,5.193,5.193,251.739,184.268,176.550
0.168,16.698,5.255,5.255,251.817,184.175,176.617
0.170,16.841,5.316,5.316,251.894,184.077,176.687
0.171,16.988,5.376,5.376,251.969,183.976,176.763
0.173,17.139,5.434,5.434,252.041,183.872,176.846
0.174,17.293,5.489,5.489,252.108,183.764,176.935
0.175,17.452,5.544,5.544,252.169,183.654,177.031
0.177,17.614,5.599,5.599,252.225,183.542,177.135
0.178,17.780,5.655,5.655,252.273,183.429,177.246
0.180,17.950,5.714,5.714,252.315,183.315,177.363
0.181,18.122,5.777,5.777,252.349,183.200,177.487
0.182,18.297,5.845,5.845,252.376,183.085,177.616
0.184,18.474,5.919,5.919,252.394,182.971,177.751
0.185,18.653,5.996,5.996,252.403,182.859,177.890
0.187,18.835,6.076,6.076,252.402,182.748,178.034
0.188,19.018,6.156,6.156,252.392,182.640,178.182
0.189,19.204,6.235,6.235,252.372,182.534,178.333
0.191,19.391,6.311,6.311,252.342,182.432,178.487
0.192,19.580,6.384,6.384,252.300,182.334,178.643
0.194,19.769,6.450,6.450,252.250,182.240,178.799
0.195,19.955,6.511,6.511,252.193,182.151,178.953
0.196,20.137,6.565,6.565,252.131,182.068,179.102
0.198,20.312,6.613,6.613,252.066,181.991,179.245
0.199,20.478,6.655,6.655,251.999,181.919,179.379
0.201,20.632,6.689,6.689,251.932,181.855,179.502
0.202,20.772,6.716,6.716,251.868,181.797,179.612
0.203,20.895,6.736,6.736,251.808,181.748,179.707
0.205,20.998,6.749,6.749,251.754,181.706,179.784
0.206,21.078,6.757,6.757,251.708,181.673,179.842
0.208,21.136,6.760,6.760,251.671,181.649,179.878
0.209,21.172,6.760,6.760,251.643,181.633,179.895
0.210,21.193,6.756,6.756,251.624,181.624,179.898
0.212,21.208,6.751,6.751,251.612,181.621,179.889
0.213,21.225,6.745,6.745,251.608,181.623,179.873
0.215,21.245,6.739,6.739,251.610,181.628,179.853
0.216,21.268,6.735,6.735,251.618,181.635,179.834
0.217,21.289,6.735,6.735,251.630,181.644,179.818
0.219,21.310,6.740,6.740,251.647,181.653,179.811
0.220,21.332,6.751,6.751,251.667,181.661,179.815
0.222,21.363,6.770,6.770,251.691,181.667,179.835
0.223,21.410,6.798,6.798,251.716,181.669,179.874
0.224,21.474,6.835,6.835,251.743,181.668,179.933
0.226,21.554,6.878,6.878,251.771,181.664,180.007
0.227,21.646,6.923,6.923,251.799,181.656,180.094
0.229,21.748,6.967,6.967,251.828,181.646,180.191
0.230,21.856,7.009,7.009,251.857,181.633,180.294
0.231,21.967,7.044,7.044,251.885,181.617,180.401
0.233,22.078,7.070,7.070,251.913,181.599,180.508
0.234,22.187,7.085,7.085,251.938,181.580,180.611
0.236,22.289,7.093,7.093,251.962,181.558,180.708
0.237,22.382,7.094,7.094,251.984,181.535,180.795
0.238,22.462,7.091,7.091,252.003,181.511,180.870
0.240,22.529,7.086,7.086,252.019,181.485,180.930
0.241,22.585,7.081,7.081,252.032,181.458,180.977
0.243,22.634,7.079,7.079,252.043,181.427,181.013
0.244,22.679,7.079,7.079,252.051,181.392,181.040
0.245,22.723,7.082,7.082,252.056,181.353,181.059
0.247,22.770,7.084,7.084,252.058,181.308,181.074
0.248,22.823,7.085,7.085,252.059,181.256,181.085
0.250,22.883,7.082,7.082,252.057,181.197,181.095
0.251,22.951,7.074,7.074,252.053,181.130,181.105
0.252,23.029,7.058,7.058,252.047,181.054,181.118
0.254,23.117,7.034,7.034,252.039,180.968,181.135
0.255,23.217,7.004,7.004,252.029,180.871,181.159
0.257,23.327,6.969,6.969,252.019,180.765,181.188
0.258,23.444,6.932,6.932,252.008,180.653,181.221
0.259,23.568,6.896,6.896,251.999,180.536,181.259
0.261,23.694,6.862,6.862,251.993,180.417,181.301
0.262,23.821,6.834,6.834,251.989,180.298,181.345
0.264,23.947,6.813,6.813,251.990,180.181,181.391
0.265,24.069,6.798,6.798,251.997,180.069,181.438
0.266,24.186,6.787,6.787,252.010,179.963,181.485
0.268,24.295,6.778,6.778,252.030,179.865,181.532
0.269,24.397,6.769,6.769,252.060,179.779,181.578
0.271,24.491,6.757,6.757,252.098,179.706,181.621
0.272,24.578,6.740,6.740,252.146,179.646,181.663
0.273,24.660,6.716,6.716,252.201,179.598,181.701
0.275,24.739,6.684,6.684,252.261,179.561,181.737
0.276,24.815,6.648,6.648,252.324,179.535,181.769
0.278,24.888,6.609,6.609,252.389,179.517,181.798
0.279,24.958,6.569,6.569,252.453,179.507,181.824
0.281,25.023,6.531,6.531,252.515,179.503,181.845
0.282,25.084,6.498,6.498,252.572,179.505,181.863
0.283,25.137,6.470,6.470,252.624,179.511,181.877
0.285,25.183,6.450,6.450,252.667,179.521,181.886
0.286,25.218,6.436,6.436,252.701,179.532,181.890
0.288,25.245,6.428,6.428,252.724,179.544,181.891
0.289,25.264,6.424,6.424,252.738,179.557,181.887
0.290,25.278,6.423,6.423,252.745,179.568,181.882
0.292,25.289,6.424,6.424,252.747,179.577,181.876
0.293,25.297,6.426,6.426,252.746,179.583,181.871
0.295,25.302,6.428,6.428,252.743,179.584,181.867
0.296,25.307,6.429,6.429,252.740,179.581,181.866
0.297,25.317,6.428,6.428,252.739,179.572,181.868
0.299,25.335,6.423,6.423,252.742,179.555,181.876
0.300,25.365,6.413,6.413,252.751,179.531,181.891
0.302,25.409,6.397,6.398,252.768,179.497,181.913
0.303,25.467,6.374,6.376,252.793,179.454,181.944
0.304,25.540,6.343,6.346,252.826,179.401,181.982
0.306,25.624,6.305,6.310,252.864,179.341,182.027
0.307,25.718,6.263,6.270,252.907,179.274,182.077
0.309,25.819,6.219,6.228,252.952,179.202,182.131
0.310,25.925,6.175,6.185,252.998,179.125,182.187
0.311,26.033,6.133,6.145,253.042,179.046,182.245
0.313,26.142,6.095,6.108,253.084,178.964,182.304
0.314,26.249,6.063,6.077,253.120,178.881,182.361
0.316,26.352,6.037,6.052,253.150,178.799,182.416
0.317,26.450,6.016,6.032,253.172,178.718,182.467
0.318,26.542,6.000,6.015,253.183,178.640,182.514
0.320,26.628,5.987,6.002,253.186,178.565,182.557
0.321,26.712,5.977,5.991,253.182,178.492,182.597
0.323,26.794,5.968,5.981,253.176,178.420,182.636
0.324,26.876,5.959,5.971,253.171,178.348,182.676
0.325,26.959,5.950,5.960,253.169,178.277,182.719
0.327,27.045,5.938,5.946,253.173,178.205,182.765
0.328,27.137,5.922,5.928,253.188,178.131,182.818
0.330,27.237,5.901,5.904,253.214,178.055,182.877
0.331,27.349,5.871,5.873,253.257,177.977,182.946
0.332,27.479,5.833,5.833,253.319,177.895,183.025
0.334,27.630,5.783,5.783,253.402,177.809,183.116
0.335,27.803,5.722,5.722,253.508,177.718,183.220
0.337,27.996,5.653,5.653,253.634,177.626,183.334
0.338,28.206,5.579,5.580,253.775,177.532,183.456
0.339,28.427,5.502,5.503,253.930,177.438,183.583
0.341,28.656,5.425,5.428,254.095,177.347,183.714
0.342,28.889,5.351,5.355,254.265,177.259,183.846
0.344,29.121,5.282,5.288,254.439,177.176,183.976
0.345,29.350,5.222,5.229,254.613,177.100,184.103
0.346,29.569,5.169,5.177,254.782,177.032,184.224
0.348,29.776,5.123,5.131,254.945,176.973,184.337
0.349,29.965,5.082,5.091,255.098,176.926,184.439
0.351,30.135,5.047,5.054,255.238,176.890,184.529
0.352,30.288,5.017,5.021,255.366,176.866,184.608
0.353,30.425,4.990,4.991,255.485,176.852,184.676
0.355,30.551,4.967,4.962,255.595,176.845,184.735
0.356,30.667,4.946,4.935,255.699,176.846,184.787
0.358,30.776,4.927,4.910,255.798,176.851,184.833
0.359,30.881,4.909,4.889,255.894,176.861,184.874
0.360,30.984,4.892,4.872,255.990,176.872,184.911
0.362,31.087,4.874,4.859,256.086,176.885,184.945
0.363,31.192,4.856,4.852,256.185,176.896,184.979
0.365,31.301,4.836,4.850,256.288,176.906,185.013
0.366,31.416,4.816,4.854,256.397,176.912,185.048
0.367,31.536,4.796,4.861,256.511,176.914,185.086
0.369,31.662,4.777,4.871,256.631,176.913,185.125
0.370,31.792,4.760,4.882,256.754,176.908,185.166
0.372,31.926,4.747,4.894,256.880,176.901,185.210
0.373,32.062,4.739,4.903,257.008,176.891,185.256
0.374,32.200,4.736,4.910,257.137,176.878,185.303
0.376,32.339,4.738,4.914,257.265,176.864,185.353
0.377,32.477,4.746,4.917,257.392,176.849,185.406
0.379,32.614,4.757,4.918,257.517,176.832,185.461
0.380,32.749,4.771,4.919,257.638,176.814,185.518
0.381,32.881,4.786,4.921,257.755,176.796,185.577
0.383,33.011,4.802,4.925,257.867,176.777,185.639
0.384,33.137,4.818,4.931,257.974,176.757,185.702
0.386,33.259,4.833,4.941,258.076,176.736,185.766
0.387,33.379,4.848,4.952,258.175,176.713,185.830
0.388,33.496,4.862,4.965,258.269,176.688,185.895
0.390,33.609,4.877,4.977,258.359,176.661,185.958
0.391,33.720,4.892,4.989,258.446,176.631,186.019
0.393,33.827,4.908,5.000,258.530,176.598,186.078
0.394,33.932,4.925,5.007,258.610,176.561,186.135
0.396,34.034,4.943,5.012,258.687,176.520,186.188
0.397,34.134,4.961,5.015,258.762,176.475,186.236
0.398,34.233,4.979,5.016,258.835,176.426,186.280
0.400,34.329,4.996,5.017,258.906,176.373,186.320
0.401,34.424,5.012,5.020,258.976,176.321,186.356
0.403,34.518,5.025,5.025,259.047,176.269,186.389
0.404,34.609,5.034,5.034,259.119,176.221,186.419
0.405,34.699,5.040,5.047,259.193,176.178,186.446
0.407,34.788,5.042,5.063,259.270,176.143,186.472
0.408,34.876,5.041,5.082,259.351,176.116,186.496
0.410,34.966,5.038,5.102,259.437,176.101,186.518
0.411,35.060,5.034,5.121,259.528,176.099,186.541
0.412,35.162,5.028,5.139,259.626,176.112,186.563
0.414,35.274,5.022,5.155,259.732,176.142,186.585
0.415,35.396,5.017,5.166,259.843,176.188,186.607
0.417,35.527,5.012,5.173,259.959,176.246,186.630
0.418,35.665,5.006,5.175,260.076,176.314,186.652
0.419,35.806,5.000,5.173,260.193,176.390,186.674
0.421,35.948,4.992,5.166,260.308,176.470,186.695
0.422,36.086,4.984,5.154,260.418,176.552,186.715
0.424,36.219,4.973,5.138,260.521,176.633,186.733
0.425,36.342,4.960,5.116,260.615,176.710,186.750
0.426,36.452,4.945,5.091,260.698,176.781,186.766
0.428,36.546,4.929,5.064,260.768,176.842,186.779
0.429,36.620,4.914,5.036,260.823,176.892,186.790
0.431,36.675,4.901,5.010,260.862,176.928,186.799
0.432,36.711,4.891,4.988,260.887,176.953,186.806
0.433,36.731,4.885,4.971,260.900,176.969,186.810
0.435,36.739,4.884,4.961,260.904,176.975,186.813
0.436,36.744,4.890,4.958,260.899,176.975,186.813
0.438,36.756,4.900,4.962,260.888,176.969,186.812
0.439,36.774,4.913,4.971,260.874,176.959,186.809
0.440,36.796,4.927,4.983,260.857,176.946,186.805
0.442,36.818,4.941,4.997,260.840,176.932,186.799
0.443,36.840,4.954,5.011,260.825,176.918,186.791
0.445,36.859,4.963,5.024,260.814,176.906,186.783
0.446,36.873,4.969,5.034,260.808,176.898,186.773
0.447,36.885,4.970,5.040,260.808,176.892,186.762
0.449,36.898,4.966,5.042,260.814,176.891,186.750
0.450,36.917,4.958,5.039,260.826,176.895,186.737
0.452,36.942,4.946,5.031,260.846,176.903,186.724
0.453,36.975,4.930,5.017,260.872,176.918,186.710
0.454,37.017,4.909,4.995,260.906,176.938,186.695
0.456,37.069,4.884,4.966,260.947,176.965,186.679
0.457,37.130,4.855,4.931,260.996,176.999,186.663
0.459,37.203,4.822,4.890,261.053,177.040,186.647
0.460,37.287,4.785,4.844,261.119,177.090,186.630
0.461,37.383,4.745,4.796,261.194,177.148,186.614
0.463,37.491,4.701,4.745,261.277,177.214,186.597
0.464,37.609,4.655,4.693,261.368,177.287,186.579
0.466,37.737,4.606,4.641,261.467,177.365,186.561
0.467,37.873,4.554,4.589,261.574,177.448,186.542
0.468,38.017,4.499,4.536,261.687,177.535,186.522
0.470,38.168,4.442,4.481,261.806,177.625,186.501
0.471,38.324,4.383,4.424,261.932,177.716,186.478
0.473,38.486,4.321,4.363,262.063,177.807,186.454
0.474,38.652,4.257,4.298,262.199,177.898,186.429
0.475,38.821,4.192,4.228,262.341,177.988,186.401
0.477,38.993,4.125,4.154,262.486,178.074,186.372
0.478,39.167,4.059,4.079,262.636,178.158,186.341
0.480,39.343,3.994,4.006,262.789,178.238,186.307
0.481,39.521,3.934,3.938,262.945,178.313,186.270
0.482,39.700,3.878,3.877,263.105,178.384,186.231
0.484,39.881,3.829,3.827,263.268,178.450,186.188
0.485,40.063,3.789,3.791,263.434,178.511,186.142
0.487,40.247,3.757,3.769,263.601,178.566,186.092
0.488,40.431,3.734,3.759,263.771,178.614,186.038
0.489,40.617,3.717,3.760,263.943,178.657,185.980
0.491,40.805,3.706,3.768,264.116,178.692,185.917
0.492,40.994,3.700,3.782,264.291,178.719,185.850
0.494,41.185,3.698,3.799,264.466,178.740,185.778
0.495,41.377,3.698,3.816,264.642,178.754,185.703
0.496,41.569,3.701,3.833,264.819,178.762,185.626
0.498,41.762,3.704,3.848,264.995,178.768,185.549
0.499,41.953,3.710,3.862,265.170,178.770,185.473
0.501,42.142,3.718,3.875,265.345,178.771,185.400
0.502,42.329,3.727,3.888,265.519,178.772,185.332
0.504,42.512,3.739,3.900,265.691,178.773,185.270
0.505,42.690,3.753,3.911,265.861,178.778,185.216
0.506,42.864,3.770,3.922,266.028,178.785,185.171
0.508,43.032,3.788,3.932,266.193,178.798,185.136
0.509,43.197,3.807,3.943,266.354,178.816,185.113
0.511,43.356,3.828,3.953,266.512,178.839,185.102
0.512,43.511,3.848,3.964,266.664,178.867,185.100
0.513,43.661,3.868,3.975,266.810,178.898,185.107
0.515,43.804,3.887,3.986,266.949,178.931,185.120
0.516,43.940,3.904,3.998,267.080,178.965,185.138
0.518,44.069,3.920,4.010,267.202,179.000,185.159
0.519,44.187,3.934,4.022,267.313,179.034,185.183
0.520,44.295,3.947,4.033,267.413,179.066,185.207
0.522,44.390,3.958,4.042,267.500,179.095,185.230
0.523,44.471,3.968,4.048,267.574,179.120,185.251
0.525,44.536,3.977,4.051,267.634,179.141,185.267
0.526,44.586,3.984,4.050,267.680,179.156,185.278
0.527,44.621,3.990,4.046,267.712,179.167,185.286
0.529,44.643,3.995,4.039,267.734,179.173,185.290
0.530,44.655,3.999,4.032,267.744,179.176,185.290
0.532,44.658,4.002,4.025,267.747,179.176,185.288
0.533,44.665,4.003,4.019,267.741,179.173,185.284
0.534,44.679,4.003,4.016,267.729,179.169,185.277
0.536,44.699,4.002,4.017,267.713,179.163,185.270
0.537,44.722,3.999,4.022,267.692,179.155,185.261
0.539,44.747,3.996,4.031,267.670,179.148,185.252
0.540,44.773,3.992,4.042,267.647,179.140,185.243
0.541,44.799,3.990,4.054,267.624,179.132,185.235
0.543,44.822,3.988,4.065,267.603,179.126,185.227
0.544,44.842,3.988,4.076,267.585,179.120,185.220
0.546,44.856,3.990,4.083,267.573,179.115,185.215
0.547,44.865,3.995,4.087,267.566,179.111,185.212
0.548,44.868,4.000,4.087,267.568,179.108,185.210
0.550,44.879,4.006,4.084,267.578,179.106,185.211
0.551,44.901,4.011,4.076,267.600,179.106,185.215
0.553,44.935,4.012,4.065,267.633,179.108,185.221
0.554,44.983,4.010,4.049,267.681,179.111,185.231
0.555,45.047,4.002,4.029,267.743,179.117,185.244
0.557,45.128,3.987,4.006,267.822,179.124,185.261
0.558,45.225,3.968,3.979,267.916,179.133,185.282
0.560,45.337,3.944,3.951,268.025,179.143,185.307
0.561,45.463,3.918,3.921,268.147,179.152,185.335
0.562,45.602,3.891,3.893,268.282,179.160,185.368
0.564,45.752,3.865,3.866,268.427,179.167,185.404
0.565,45.912,3.842,3.842,268.582,179.170,185.445
0.567,46.082,3.822,3.822,268.746,179.171,185.489
0.568,46.260,3.807,3.806,268.917,179.167,185.537
0.569,46.445,3.797,3.796,269.095,179.157,185.590
0.571,46.637,3.791,3.790,269.277,179.142,185.646
