"T","Distance","Radius","FreeRadius","X","Y","Z"
0.000,0.000,2.079,2.079,227.057,215.117,239.369
0.001,0.482,2.264,2.264,227.537,215.084,239.350
0.003,0.959,2.446,2.446,228.013,215.050,239.333
0.004,1.428,2.622,2.622,228.480,215.014,239.319
0.006,1.884,2.790,2.790,228.934,214.976,239.309
0.007,2.323,2.947,2.947,229.372,214.934,239.305
0.009,2.741,3.090,3.090,229.787,214.889,239.309
0.010,3.134,3.215,3.215,230.177,214.838,239.322
0.012,3.499,3.323,3.323,230.537,214.781,239.345
0.013,3.833,3.415,3.415,230.862,214.718,239.381
0.015,4.132,3.495,3.495,231.149,214.647,239.430
0.016,4.396,3.567,3.567,231.393,214.568,239.494
0.017,4.628,3.635,3.635,231.591,214.480,239.575
0.019,4.834,3.702,3.702,231.748,214.386,239.668
0.020,5.021,3.772,3.772,231.868,214.286,239.771
0.022,5.196,3.847,3.847,231.957,214.183,239.882
0.023,5.363,3.926,3.926,232.019,214.078,239.996
0.025,5.523,4.005,4.005,232.058,213.975,240.112
0.026,5.677,4.082,4.082,232.080,213.874,240.225
0.028,5.823,4.155,4.155,232.090,213.777,240.334
0.029,5.958,4.221,4.221,232.091,213.687,240.435
0.031,6.079,4.277,4.277,232.090,213.605,240.524
0.032,6.183,4.321,4.321,232.091,213.533,240.600
0.034,6.269,4.356,4.356,232.097,213.472,240.659
0.035,6.337,4.382,4.382,232.107,213.422,240.705
0.036,6.392,4.402,4.402,232.121,213.381,240.738
0.038,6.435,4.415,4.415,232.139,213.348,240.760
0.039,6.470,4.425,4.425,232.158,213.322,240.773
0.041,6.500,4.432,4.432,232.179,213.302,240.780
0.042,6.526,4.437,4.437,232.200,213.287,240.780
0.044,6.550,4.442,4.442,232.221,213.276,240.778
0.045,6.572,4.445,4.445,232.241,213.267,240.773
0.047,6.592,4.449,4.449,232.259,213.260,240.768
0.048,6.609,4.453,4.453,232.275,213.253,240.765
0.050,6.623,4.458,4.458,232.287,213.247,240.765
0.051,6.635,4.464,4.464,232.297,213.240,240.767
0.052,6.645,4.472,4.472,232.303,213.233,240.771
0.054,6.655,4.480,4.480,232.308,213.226,240.776
0.055,6.665,4.487,4.487,232.310,213.219,240.782
0.057,6.674,4.494,4.494,232.310,213.212,240.788
0.058,6.683,4.498,4.498,232.309,213.206,240.795
0.060,6.692,4.500,4.500,232.307,213.199,240.801
0.061,6.701,4.499,4.499,232.304,213.193,240.805
0.063,6.709,4.494,4.494,232.299,213.187,240.809
0.064,6.716,4.487,4.487,232.295,213.181,240.810
0.066,6.724,4.479,4.479,232.290,213.176,240.810
0.067,6.730,4.472,4.472,232.285,213.171,240.808
0.069,6.736,4.465,4.465,232.281,213.167,240.805
0.070,6.742,4.461,4.461,232.278,213.164,240.803
0.071,6.745,4.461,4.461,232.277,213.162,240.801
0.073,6.747,4.465,4.465,232.277,213.160,240.801
0.074,6.750,4.472,4.472,232.279,213.159,240.802
0.076,6.756,4.481,4.481,232.284,213.160,240.806
0.077,6.767,4.491,4.491,232.292,213.162,240.813
0.079,6.783,4.501,4.501,232.303,213.164,240.824
0.080,6.805,4.511,4.511,232.318,213.169,240.840
0.082,6.832,4.520,4.520,232.336,213.174,240.860
0.083,6.865,4.527,4.527,232.357,213.180,240.884
0.085,6.901,4.533,4.533,232.379,213.186,240.911
0.086,6.939,4.538,4.538,232.403,213.192,240.942
0.087,6.979,4.543,4.543,232.425,213.196,240.974
0.089,7.020,4.549,4.549,232.447,213.199,241.009
0.090,7.061,4.555,4.555,232.467,213.201,241.044
0.092,7.101,4.562,4.562,232.484,213.199,241.080
0.093,7.139,4.570,4.570,232.497,213.195,241.117
0.095,7.177,4.577,4.577,232.505,213.187,241.153
0.096,7.214,4.583,4.583,232.508,213.175,241.188
0.098,7.254,4.586,4.586,232.505,213.158,241.223
0.099,7.299,4.585,4.585,232.497,213.135,241.261
0.101,7.353,4.578,4.578,232.485,213.104,241.304
0.102,7.418,4.565,4.565,232.469,213.065,241.353
0.103,7.496,4.547,4.547,232.450,213.017,241.412
0.105,7.590,4.524,4.524,232.428,212.958,241.482
0.106,7.703,4.498,4.498,232.404,212.887,241.566
0.108,7.836,4.471,4.471,232.378,212.803,241.665
0.109,7.991,4.444,4.444,232.352,212.704,241.783
0.111,8.172,4.419,4.419,232.325,212.591,241.921
0.112,8.379,4.396,4.396,232.299,212.461,242.081
0.114,8.610,4.375,4.375,232.275,212.317,242.259
0.115,8.859,4.356,4.356,232.256,212.160,242.453
0.117,9.122,4.335,4.335,232.243,211.994,242.655
0.118,9.392,4.313,4.313,232.241,211.820,242.862
0.120,9.665,4.287,4.287,232.250,211.642,243.068
0.121,9.936,4.256,4.256,232.274,211.461,243.270
0.122,10.202,4.219,4.219,232.315,211.281,243.461
0.124,10.459,4.178,4.178,232.375,211.104,243.636
0.125,10.706,4.138,4.138,232.458,210.931,243.792
0.127,10.941,4.103,4.103,232.564,210.767,243.923
0.128,11.169,4.076,4.076,232.697,210.612,244.026
0.130,11.397,4.062,4.062,232.854,210.467,244.102
0.131,11.630,4.064,4.064,233.034,210.330,244.158
0.133,11.871,4.085,4.085,233.234,210.201,244.198
0.134,12.123,4.123,4.123,233.452,210.079,244.228
0.136,12.385,4.171,4.171,233.685,209.962,244.252
0.137,12.657,4.225,4.225,233.932,209.849,244.276
0.138,12.937,4.279,4.279,234.188,209.739,244.304
0.140,13.225,4.328,4.328,234.453,209.632,244.343
0.141,13.521,4.368,4.368,234.724,209.526,244.396
0.143,13.823,4.394,4.394,234.997,209.421,244.469
0.144,14.134,4.412,4.412,235.272,209.314,244.566
0.146,14.451,4.429,4.429,235.547,209.208,244.685
0.147,14.773,4.452,4.452,235.819,209.103,244.822
0.149,15.099,4.488,4.488,236.087,208.999,244.974
0.150,15.425,4.544,4.544,236.350,208.898,245.138
0.152,15.749,4.628,4.628,236.606,208.800,245.311
0.153,16.068,4.743,4.743,236.854,208.707,245.489
0.155,16.378,4.883,4.883,237.091,208.619,245.669
0.156,16.678,5.041,5.041,237.317,208.538,245.848
0.157,16.962,5.207,5.207,237.530,208.463,246.022
0.159,17.229,5.374,5.374,237.727,208.396,246.189
0.160,17.476,5.534,5.534,237.909,208.338,246.345
0.162,17.702,5.678,5.678,238.075,208.288,246.490
0.163,17.909,5.800,5.800,238.226,208.244,246.624
0.165,18.096,5.903,5.903,238.362,208.208,246.748
0.166,18.266,5.988,5.988,238.485,208.177,246.861
0.168,18.418,6.058,6.058,238.595,208.152,246.963
0.169,18.553,6.116,6.116,238.692,208.131,247.054
0.171,18.672,6.163,6.163,238.778,208.114,247.135
0.172,18.775,6.203,6.203,238.852,208.100,247.205
0.173,18.863,6.238,6.238,238.915,208.088,247.265
0.175,18.936,6.267,6.267,238.968,208.079,247.314
0.176,18.994,6.291,6.291,239.012,208.071,247.352
0.178,19.040,6.310,6.311,239.046,208.064,247.381
0.179,19.072,6.325,6.325,239.071,208.059,247.401
0.181,19.093,6.336,6.336,239.088,208.056,247.413
0.182,19.102,6.342,6.342,239.096,208.054,247.418
0.184,19.104,6.344,6.344,239.095,208.053,247.416
0.185,19.116,6.343,6.342,239.087,208.055,247.408
0.187,19.137,6.337,6.336,239.070,208.058,247.396
0.188,19.167,6.326,6.326,239.046,208.063,247.379
0.190,19.205,6.311,6.310,239.015,208.071,247.359
0.191,19.250,6.291,6.291,238.977,208.080,247.336
0.192,19.302,6.266,6.266,238.933,208.090,247.311
0.194,19.354,6.237,6.237,238.887,208.101,247.288
0.195,19.403,6.206,6.207,238.844,208.109,247.267
0.197,19.444,6.176,6.178,238.806,208.113,247.251
0.198,19.473,6.151,6.153,238.778,208.111,247.242
0.200,19.491,6.132,6.134,238.764,208.101,247.242
0.201,19.513,6.122,6.123,238.768,208.082,247.253
0.203,19.560,6.125,6.124,238.793,208.051,247.278
0.204,19.638,6.141,6.137,238.843,208.007,247.318
0.206,19.753,6.167,6.160,238.922,207.948,247.376
0.207,19.909,6.202,6.193,239.035,207.872,247.453
0.208,20.105,6.243,6.233,239.179,207.779,247.549
0.210,20.334,6.288,6.280,239.350,207.675,247.660
0.211,20.585,6.336,6.332,239.540,207.561,247.780
0.213,20.852,6.383,6.388,239.743,207.443,247.905
0.214,21.124,6.429,6.445,239.953,207.323,248.031
0.216,21.394,6.473,6.501,240.163,207.206,248.153
0.217,21.653,6.513,6.554,240.368,207.095,248.266
0.219,21.892,6.548,6.600,240.560,206.994,248.366
0.220,22.103,6.579,6.638,240.733,206.908,248.449
0.222,22.277,6.603,6.664,240.881,206.838,248.510
0.223,22.408,6.620,6.677,240.998,206.790,248.544
0.224,22.498,6.630,6.676,241.083,206.762,248.553
0.226,22.557,6.634,6.664,241.139,206.748,248.543
0.227,22.595,6.630,6.646,241.170,206.743,248.522
0.229,22.624,6.620,6.623,241.180,206.742,248.494
0.230,22.652,6.604,6.600,241.173,206.739,248.468
0.232,22.683,6.582,6.579,241.151,206.729,248.448
0.233,22.723,6.555,6.564,241.119,206.706,248.443
0.235,22.781,6.521,6.552,241.081,206.664,248.458
0.236,22.869,6.480,6.540,241.039,206.599,248.500
0.238,22.996,6.430,6.523,240.999,206.504,248.574
0.239,23.172,6.370,6.496,240.963,206.375,248.689
0.241,23.397,6.300,6.456,240.932,206.213,248.841
0.242,23.662,6.217,6.397,240.905,206.024,249.026
0.243,23.962,6.120,6.315,240.883,205.814,249.239
0.245,24.289,6.014,6.214,240.863,205.587,249.473
0.246,24.634,5.900,6.101,240.847,205.351,249.724
0.248,24.990,5.784,5.980,240.831,205.109,249.985
0.249,25.350,5.669,5.860,240.817,204.868,250.252
0.251,25.705,5.560,5.747,240.803,204.634,250.518
0.252,26.048,5.461,5.647,240.789,204.412,250.779
0.254,26.371,5.376,5.567,240.774,204.208,251.029
0.255,26.667,5.304,5.505,240.757,204.027,251.262
0.257,26.935,5.246,5.458,240.739,203.869,251.478
0.258,27.176,5.198,5.422,240.719,203.732,251.676
0.259,27.390,5.161,5.393,240.698,203.616,251.855
0.261,27.581,5.134,5.367,240.676,203.519,252.017
0.262,27.747,5.113,5.341,240.653,203.439,252.161
0.264,27.891,5.099,5.312,240.630,203.374,252.287
0.265,28.012,5.091,5.279,240.607,203.323,252.395
0.267,28.113,5.088,5.245,240.584,203.284,252.485
0.268,28.194,5.088,5.212,240.561,203.256,252.557
0.270,28.256,5.092,5.182,240.539,203.236,252.612
0.271,28.300,5.099,5.157,240.518,203.225,252.649
0.273,28.329,5.107,5.139,240.498,203.220,252.670
0.274,28.349,5.116,5.130,240.481,203.219,252.679
0.276,28.363,5.125,5.128,240.467,203.222,252.680
0.277,28.376,5.133,5.131,240.457,203.227,252.674
0.278,28.388,5.139,5.136,240.451,203.233,252.665
0.280,28.399,5.142,5.141,240.451,203.239,252.656
0.281,28.408,5.140,5.143,240.457,203.242,252.650
0.283,28.421,5.133,5.141,240.470,203.243,252.651
0.284,28.444,5.119,5.131,240.490,203.240,252.660
0.286,28.481,5.100,5.115,240.520,203.230,252.682
0.287,28.536,5.076,5.093,240.558,203.214,252.718
0.289,28.607,5.047,5.066,240.603,203.192,252.768
0.290,28.692,5.015,5.035,240.654,203.165,252.830
0.292,28.788,4.981,5.000,240.710,203.134,252.902
0.293,28.894,4.945,4.964,240.768,203.100,252.983
0.294,29.005,4.908,4.925,240.827,203.063,253.071
0.296,29.121,4.870,4.885,240.885,203.025,253.164
0.297,29.239,4.832,4.845,240.940,202.987,253.261
0.299,29.357,4.794,4.804,240.991,202.949,253.360
0.300,29.472,4.756,4.763,241.035,202.913,253.459
0.302,29.582,4.719,4.723,241.072,202.879,253.557
0.303,29.687,4.684,4.683,241.101,202.849,253.653
0.305,29.786,4.650,4.645,241.121,202.821,253.747
0.306,29.882,4.617,4.609,241.137,202.795,253.838
0.308,29.975,4.586,4.575,241.147,202.770,253.926
0.309,30.065,4.557,4.545,241.156,202.746,254.013
0.310,30.153,4.529,4.519,241.163,202.722,254.097
0.312,30.239,4.503,4.497,241.172,202.697,254.179
0.313,30.324,4.478,4.480,241.182,202.671,254.260
0.315,30.409,4.456,4.469,241.197,202.643,254.338
0.316,30.495,4.434,4.462,241.218,202.612,254.415
0.318,30.582,4.414,4.457,241.246,202.578,254.491
0.319,30.673,4.394,4.454,241.282,202.540,254.565
0.321,30.769,4.375,4.450,241.326,202.497,254.639
0.322,30.872,4.356,4.446,241.377,202.451,254.715
0.324,30.981,4.336,4.438,241.436,202.400,254.793
0.325,31.099,4.316,4.427,241.500,202.345,254.874
0.327,31.226,4.295,4.413,241.570,202.285,254.961
0.328,31.361,4.274,4.397,241.645,202.220,255.053
0.329,31.507,4.251,4.381,241.724,202.150,255.153
0.331,31.662,4.227,4.366,241.808,202.074,255.261
0.332,31.829,4.202,4.352,241.894,201.994,255.378
0.334,32.008,4.175,4.341,241.984,201.908,255.506
0.335,32.198,4.148,4.333,242.075,201.816,255.646
0.337,32.399,4.122,4.329,242.165,201.719,255.797
0.338,32.609,4.098,4.328,242.252,201.618,255.959
0.340,32.827,4.079,4.331,242.335,201.512,256.131
0.341,33.053,4.066,4.338,242.411,201.403,256.314
0.343,33.285,4.062,4.348,242.478,201.291,256.506
0.344,33.524,4.068,4.363,242.533,201.176,256.708
0.345,33.769,4.085,4.383,242.576,201.059,256.919
0.347,34.021,4.112,4.408,242.603,200.940,257.139
0.348,34.279,4.151,4.440,242.612,200.819,257.368
0.350,34.545,4.200,4.479,242.601,200.698,257.604
0.351,34.818,4.260,4.528,242.572,200.577,257.847
0.353,35.096,4.330,4.587,242.526,200.457,258.093
0.354,35.373,4.410,4.658,242.467,200.340,258.337
0.356,35.647,4.498,4.738,242.398,200.227,258.577
0.357,35.914,4.591,4.822,242.322,200.119,258.809
0.359,36.168,4.683,4.906,242.243,200.018,259.029
0.360,36.406,4.772,4.985,242.164,199.926,259.233
0.362,36.622,4.853,5.053,242.088,199.843,259.418
0.363,36.813,4.921,5.106,242.018,199.772,259.580
0.364,36.973,4.974,5.138,241.957,199.712,259.716
0.366,37.098,5.011,5.152,241.909,199.667,259.822
0.367,37.188,5.034,5.150,241.874,199.634,259.898
0.369,37.247,5.047,5.140,241.852,199.613,259.948
0.370,37.280,5.051,5.125,241.840,199.600,259.977
0.372,37.292,5.050,5.111,241.838,199.594,259.987
0.373,37.300,5.047,5.104,241.845,199.593,259.983
0.375,37.320,5.045,5.108,241.859,199.594,259.969
0.376,37.349,5.044,5.123,241.879,199.594,259.948
0.378,37.384,5.044,5.147,241.904,199.593,259.924
0.379,37.421,5.047,5.177,241.934,199.588,259.902
0.380,37.459,5.052,5.210,241.965,199.576,259.885
0.382,37.499,5.059,5.244,241.999,199.555,259.876
0.383,37.545,5.068,5.275,242.033,199.526,259.877
0.385,37.597,5.080,5.301,242.068,199.489,259.887
0.386,37.656,5.095,5.322,242.104,199.444,259.904
0.388,37.723,5.112,5.338,242.141,199.394,259.927
0.389,37.796,5.130,5.351,242.179,199.339,259.957
0.391,37.874,5.150,5.363,242.217,199.279,259.992
0.392,37.958,5.171,5.374,242.255,199.216,260.030
0.394,38.044,5.192,5.386,242.294,199.151,260.071
0.395,38.133,5.214,5.400,242.333,199.084,260.114
0.397,38.222,5.236,5.415,242.372,199.017,260.159
0.398,38.312,5.258,5.432,242.411,198.950,260.203
0.399,38.400,5.279,5.450,242.450,198.884,260.246
0.401,38.485,5.301,5.468,242.488,198.820,260.287
0.402,38.565,5.321,5.486,242.523,198.759,260.325
0.404,38.639,5.341,5.504,242.557,198.701,260.358
0.405,38.705,5.360,5.520,242.587,198.649,260.385
0.407,38.762,5.377,5.535,242.614,198.602,260.405
0.408,38.810,5.391,5.548,242.635,198.562,260.416
0.410,38.847,5.400,5.559,242.652,198.529,260.419
0.411,38.876,5.403,5.568,242.663,198.504,260.410
0.413,38.902,5.399,5.574,242.668,198.488,260.389
0.414,38.936,5.386,5.578,242.665,198.482,260.356
0.415,38.978,5.363,5.579,242.657,198.484,260.314
0.417,39.025,5.334,5.578,242.646,198.491,260.269
0.418,39.072,5.302,5.575,242.634,198.502,260.225
0.420,39.112,5.270,5.572,242.622,198.513,260.189
0.421,39.140,5.243,5.567,242.613,198.523,260.164
0.423,39.151,5.224,5.563,242.609,198.528,260.156
0.424,39.166,5.217,5.559,242.611,198.528,260.171
0.426,39.211,5.226,5.558,242.623,198.519,260.213
0.427,39.291,5.249,5.560,242.645,198.498,260.288
0.429,39.414,5.285,5.568,242.681,198.464,260.400
0.430,39.583,5.334,5.585,242.731,198.415,260.554
0.431,39.791,5.394,5.613,242.792,198.354,260.743
0.433,40.029,5.463,5.654,242.862,198.282,260.959
0.434,40.290,5.541,5.711,242.938,198.204,261.196
0.436,40.564,5.626,5.785,243.016,198.122,261.445
0.437,40.842,5.714,5.871,243.092,198.039,261.700
0.439,41.116,5.803,5.962,243.164,197.959,261.951
0.440,41.376,5.888,6.051,243.229,197.884,262.192
0.442,41.616,5.967,6.133,243.283,197.817,262.416
0.443,41.825,6.035,6.201,243.323,197.763,262.614
0.445,41.996,6.090,6.249,243.346,197.722,262.778
0.446,42.124,6.129,6.272,243.351,197.698,262.905
0.448,42.217,6.155,6.275,243.340,197.688,262.996
0.449,42.280,6.169,6.263,243.320,197.687,263.056
0.450,42.322,6.175,6.241,243.294,197.693,263.088
0.452,42.352,6.176,6.214,243.267,197.702,263.098
0.453,42.377,6.174,6.189,243.245,197.710,263.090
0.455,42.405,6.172,6.170,243.231,197.714,263.066
0.456,42.439,6.172,6.159,243.231,197.711,263.032
0.458,42.485,6.172,6.156,243.250,197.697,262.992
0.459,42.551,6.173,6.158,243.291,197.668,262.950
0.461,42.644,6.172,6.161,243.360,197.622,262.909
0.462,42.767,6.170,6.164,243.459,197.556,262.874
0.464,42.919,6.164,6.162,243.583,197.473,262.843
0.465,43.094,6.154,6.155,243.726,197.377,262.817
0.466,43.285,6.140,6.139,243.884,197.271,262.795
0.468,43.488,6.122,6.118,244.051,197.158,262.777
0.469,43.696,6.100,6.093,244.222,197.041,262.762
0.471,43.902,6.076,6.066,244.392,196.924,262.751
0.472,44.101,6.049,6.039,244.555,196.809,262.742
0.474,44.287,6.020,6.015,244.706,196.701,262.737
0.475,44.454,5.991,5.994,244.839,196.602,262.733
0.477,44.595,5.961,5.979,244.951,196.515,262.732
0.478,44.709,5.932,5.968,245.038,196.442,262.733
0.480,44.798,5.906,5.961,245.102,196.380,262.735
0.481,44.868,5.883,5.956,245.148,196.327,262.741
0.483,44.924,5.866,5.953,245.176,196.280,262.749
0.484,44.971,5.855,5.951,245.192,196.237,262.760
0.485,45.016,5.852,5.949,245.196,196.195,262.775
0.487,45.063,5.856,5.946,245.193,196.151,262.793
0.488,45.116,5.866,5.942,245.185,196.103,262.815
0.490,45.178,5.879,5.938,245.175,196.049,262.842
0.491,45.249,5.893,5.932,245.165,195.986,262.873
0.493,45.332,5.904,5.926,245.159,195.911,262.909
0.494,45.428,5.911,5.918,245.158,195.824,262.949
0.496,45.534,5.912,5.908,245.162,195.728,262.992
0.497,45.647,5.905,5.896,245.170,195.624,263.037
0.499,45.766,5.893,5.884,245.183,195.515,263.082
0.500,45.887,5.877,5.870,245.200,195.404,263.127
0.501,46.007,5.860,5.856,245.221,195.292,263.169
0.503,46.126,5.841,5.840,245.246,195.183,263.207
0.504,46.239,5.824,5.825,245.274,195.079,263.240
0.506,46.345,5.810,5.809,245.305,194.981,263.266
0.507,46.441,5.799,5.793,245.340,194.893,263.285
0.509,46.527,5.790,5.779,245.377,194.816,263.295
0.510,46.603,5.782,5.766,245.415,194.751,263.296
0.512,46.671,5.774,5.756,245.454,194.695,263.291
0.513,46.732,5.764,5.748,245.491,194.647,263.282
0.515,46.788,5.751,5.745,245.525,194.604,263.272
0.516,46.838,5.735,5.747,245.554,194.564,263.263
0.517,46.884,5.715,5.752,245.577,194.525,263.257
0.519,46.927,5.693,5.759,245.592,194.485,263.257
0.520,46.972,5.671,5.766,245.597,194.441,263.265
0.522,47.025,5.650,5.771,245.591,194.391,263.283
0.523,47.092,5.631,5.772,245.572,194.335,263.314
0.525,47.180,5.616,5.767,245.538,194.268,263.360
0.526,47.287,5.607,5.755,245.492,194.192,263.419
0.528,47.411,5.601,5.737,245.436,194.106,263.489
0.529,47.546,5.598,5.713,245.373,194.013,263.564
0.531,47.689,5.595,5.688,245.308,193.912,263.642
0.532,47.836,5.589,5.661,245.242,193.805,263.718
0.534,47.982,5.578,5.637,245.180,193.694,263.790
0.535,48.126,5.560,5.617,245.124,193.577,263.853
0.536,48.264,5.533,5.602,245.078,193.458,263.904
0.538,48.395,5.497,5.592,245.045,193.336,263.938
0.539,48.520,5.457,5.585,245.029,193.212,263.953
0.541,48.644,5.414,5.580,245.031,193.089,263.945
0.542,48.772,5.371,5.574,245.052,192.965,263.916
0.544,48.907,5.331,5.565,245.087,192.844,263.869
0.545,49.047,5.296,5.551,245.135,192.727,263.808
0.547,49.192,5.269,5.531,245.191,192.615,263.736
0.548,49.337,5.249,5.505,245.253,192.510,263.657
0.550,49.480,5.235,5.476,245.317,192.413,263.575
0.551,49.617,5.225,5.445,245.382,192.325,263.492
0.552,49.742,5.217,5.415,245.443,192.248,263.414
0.554,49.853,5.210,5.387,245.498,192.184,263.342
0.555,49.944,5.202,5.363,245.543,192.133,263.282
0.557,50.012,5.191,5.345,245.577,192.098,263.235
0.558,50.058,5.179,5.333,245.600,192.075,263.202
0.560,50.088,5.164,5.326,245.615,192.060,263.180
0.561,50.106,5.149,5.324,245.623,192.051,263.168
0.563,50.116,5.133,5.325,245.627,192.043,263.163
0.564,50.126,5.118,5.330,245.629,192.033,263.165
0.566,50.144,5.103,5.337,245.632,192.017,263.171
0.567,50.171,5.090,5.347,245.637,191.991,263.179
0.569,50.212,5.077,5.359,245.647,191.952,263.188
0.570,50.270,5.065,5.375,245.663,191.897,263.196
0.571,50.350,5.051,5.397,245.689,191.821,263.200
0.573,50.455,5.036,5.425,245.726,191.723,263.201
0.574,50.583,5.017,5.461,245.773,191.604,263.197
0.576,50.729,4.996,5.505,245.828,191.470,263.189
0.577,50.889,4.970,5.559,245.890,191.322,263.178
0.579,51.059,4.941,5.619,245.957,191.167,263.164
0.580,51.235,4.910,5.684,246.028,191.006,263.148
0.582,51.414,4.877,5.750,246.102,190.845,263.130
0.583,51.590,4.843,5.814,246.176,190.686,263.111
0.585,51.759,4.809,5.874,246.250,190.535,263.091
0.586,51.918,4.777,5.928,246.321,190.394,263.070
0.587,52.063,4.746,5.972,246.389,190.268,263.050
0.589,52.190,4.718,6.007,246.452,190.159,263.031
0.590,52.300,4.693,6.033,246.509,190.067,263.012
0.592,52.392,4.672,6.053,246.560,189.993,262.994
0.593,52.468,4.655,6.064,246.604,189.934,262.976
