"T","Distance","Radius","FreeRadius","X","Y","Z"
0.000,0.000,2.436,2.436,208.437,193.128,184.656
0.001,0.291,2.554,2.554,208.592,193.042,184.888
0.002,0.580,2.672,2.672,208.745,192.957,185.117
0.004,0.864,2.789,2.789,208.896,192.874,185.343
0.005,1.141,2.903,2.903,209.042,192.793,185.564
0.006,1.409,3.016,3.016,209.183,192.716,185.779
0.007,1.665,3.125,3.125,209.317,192.643,185.984
0.008,1.908,3.231,3.231,209.443,192.576,186.180
0.010,2.134,3.332,3.332,209.560,192.514,186.364
0.011,2.342,3.429,3.429,209.665,192.459,186.534
0.012,2.528,3.521,3.521,209.759,192.412,186.689
0.013,2.692,3.605,3.605,209.839,192.374,186.827
0.014,2.831,3.683,3.683,209.904,192.345,186.946
0.016,2.943,3.752,3.752,209.953,192.326,187.045
0.017,3.031,3.812,3.812,209.987,192.316,187.126
0.018,3.098,3.861,3.861,210.008,192.314,187.189
0.019,3.147,3.899,3.899,210.018,192.318,187.237
0.020,3.182,3.925,3.925,210.019,192.326,187.271
0.022,3.208,3.939,3.939,210.012,192.338,187.293
0.023,3.231,3.943,3.943,209.999,192.351,187.305
0.024,3.253,3.939,3.939,209.981,192.364,187.309
0.025,3.276,3.929,3.929,209.962,192.376,187.305
0.026,3.300,3.915,3.915,209.941,192.385,187.297
0.028,3.323,3.899,3.899,209.922,192.390,187.285
0.029,3.344,3.884,3.884,209.906,192.389,187.272
0.030,3.363,3.872,3.872,209.894,192.382,187.258
0.031,3.384,3.865,3.865,209.887,192.368,187.245
0.032,3.406,3.862,3.862,209.885,192.349,187.233
0.034,3.431,3.864,3.864,209.888,192.327,187.222
0.035,3.458,3.868,3.868,209.896,192.303,187.213
0.036,3.487,3.874,3.874,209.908,192.278,187.206
0.037,3.517,3.882,3.882,209.926,192.254,187.201
0.038,3.549,3.890,3.890,209.949,192.231,187.198
0.040,3.583,3.897,3.897,209.977,192.212,187.198
0.041,3.620,3.903,3.903,210.011,192.198,187.202
0.042,3.660,3.907,3.907,210.049,192.190,187.209
0.043,3.705,3.911,3.911,210.093,192.189,187.220
0.044,3.757,3.914,3.914,210.142,192.196,187.235
0.046,3.816,3.918,3.918,210.196,192.211,187.254
0.047,3.883,3.924,3.924,210.257,192.229,187.277
0.048,3.957,3.933,3.933,210.323,192.248,187.303
0.049,4.037,3.945,3.945,210.395,192.265,187.332
0.050,4.122,3.962,3.962,210.474,192.277,187.363
0.052,4.214,3.984,3.984,210.559,192.282,187.396
0.053,4.313,4.012,4.012,210.652,192.277,187.431
0.054,4.420,4.046,4.046,210.751,192.259,187.468
0.055,4.538,4.087,4.087,210.858,192.225,187.505
0.056,4.670,4.135,4.135,210.972,192.171,187.542
0.058,4.818,4.192,4.192,211.094,192.097,187.580
0.059,4.985,4.256,4.256,211.224,191.998,187.618
0.060,5.171,4.330,4.330,211.360,191.878,187.654
0.061,5.370,4.413,4.413,211.500,191.739,187.690
0.063,5.580,4.504,4.504,211.642,191.588,187.724
0.064,5.796,4.599,4.599,211.782,191.427,187.756
0.065,6.013,4.695,4.695,211.920,191.262,187.786
0.066,6.227,4.788,4.788,212.052,191.096,187.813
0.067,6.433,4.876,4.876,212.176,190.934,187.836
0.069,6.626,4.954,4.954,212.289,190.779,187.856
0.070,6.801,5.021,5.021,212.390,190.637,187.871
0.071,6.954,5.071,5.071,212.476,190.511,187.882
0.072,7.080,5.103,5.103,212.545,190.405,187.888
0.073,7.174,5.121,5.121,212.594,190.324,187.888
0.075,7.239,5.126,5.126,212.625,190.267,187.884
0.076,7.279,5.123,5.123,212.640,190.231,187.877
0.077,7.299,5.113,5.113,212.643,190.214,187.867
0.078,7.312,5.100,5.100,212.636,190.211,187.857
0.079,7.331,5.087,5.087,212.622,190.221,187.847
0.081,7.358,5.077,5.077,212.605,190.240,187.840
0.082,7.390,5.073,5.073,212.586,190.266,187.836
0.083,7.424,5.074,5.074,212.570,190.295,187.836
0.084,7.456,5.081,5.081,212.559,190.325,187.843
0.085,7.487,5.092,5.092,212.555,190.353,187.857
0.087,7.520,5.106,5.106,212.563,190.375,187.880
0.088,7.562,5.122,5.122,212.583,190.390,187.913
0.089,7.616,5.140,5.140,212.618,190.396,187.955
0.090,7.684,5.158,5.158,212.664,190.394,188.004
0.091,7.763,5.176,5.176,212.720,190.387,188.059
0.093,7.851,5.193,5.193,212.784,190.374,188.118
0.094,7.946,5.209,5.209,212.855,190.358,188.179
0.095,8.045,5.222,5.222,212.931,190.338,188.241
0.096,8.146,5.234,5.234,213.009,190.317,188.300
0.097,8.245,5.243,5.243,213.088,190.295,188.356
0.099,8.341,5.250,5.250,213.167,190.274,188.406
0.100,8.431,5.253,5.253,213.244,190.254,188.449
0.101,8.512,5.253,5.253,213.316,190.237,188.483
0.102,8.584,5.249,5.249,213.382,190.224,188.506
0.103,8.646,5.242,5.242,213.442,190.214,188.519
0.105,8.703,5.233,5.233,213.498,190.207,188.523
0.106,8.756,5.221,5.221,213.551,190.202,188.519
0.107,8.808,5.209,5.209,213.602,190.198,188.511
0.108,8.860,5.196,5.196,213.653,190.193,188.498
0.109,8.914,5.184,5.184,213.704,190.187,188.484
0.111,8.971,5.172,5.172,213.759,190.179,188.470
0.112,9.031,5.161,5.161,213.816,190.167,188.457
0.113,9.097,5.153,5.153,213.879,190.152,188.448
0.114,9.170,5.146,5.146,213.949,190.131,188.444
0.115,9.252,5.140,5.140,214.027,190.104,188.447
0.117,9.346,5.135,5.135,214.114,190.071,188.458
0.118,9.452,5.132,5.132,214.210,190.030,188.478
0.119,9.569,5.129,5.129,214.313,189.983,188.506
0.120,9.695,5.127,5.127,214.424,189.932,188.540
0.121,9.829,5.125,5.125,214.539,189.877,188.578
0.123,9.968,5.124,5.124,214.658,189.819,188.620
0.124,10.110,5.123,5.123,214.780,189.759,188.663
0.125,10.253,5.124,5.124,214.902,189.700,188.707
0.126,10.395,5.125,5.125,215.025,189.640,188.750
0.127,10.535,5.129,5.129,215.145,189.583,188.791
0.129,10.669,5.134,5.134,215.262,189.528,188.828
0.130,10.797,5.141,5.141,215.375,189.477,188.860
0.131,10.916,5.151,5.151,215.481,189.432,188.885
0.132,11.026,5.163,5.163,215.582,189.391,188.904
0.133,11.128,5.178,5.178,215.676,189.354,188.918
0.135,11.222,5.195,5.195,215.764,189.322,188.927
0.136,11.311,5.212,5.212,215.848,189.292,188.933
0.137,11.394,5.228,5.228,215.926,189.265,188.937
0.138,11.472,5.244,5.244,216.000,189.239,188.940
0.139,11.546,5.257,5.257,216.069,189.214,188.943
0.141,11.617,5.268,5.268,216.135,189.189,188.948
0.142,11.685,5.275,5.275,216.198,189.164,188.956
0.143,11.751,5.279,5.279,216.257,189.137,188.967
0.144,11.817,5.279,5.279,216.314,189.109,188.983
0.145,11.883,5.278,5.278,216.369,189.077,189.005
0.147,11.952,5.275,5.275,216.421,189.043,189.033
0.148,12.020,5.272,5.272,216.470,189.007,189.065
0.149,12.089,5.269,5.269,216.515,188.970,189.100
0.150,12.155,5.268,5.268,216.555,188.933,189.138
0.151,12.217,5.270,5.270,216.589,188.896,189.175
0.153,12.274,5.275,5.275,216.616,188.861,189.211
0.154,12.324,5.282,5.282,216.635,188.829,189.243
0.155,12.367,5.291,5.291,216.646,188.799,189.272
0.156,12.401,5.301,5.301,216.647,188.774,189.295
0.157,12.428,5.311,5.311,216.638,188.753,189.310
0.159,12.454,5.321,5.321,216.618,188.739,189.316
0.160,12.487,5.328,5.328,216.585,188.731,189.313
0.161,12.533,5.334,5.334,216.542,188.729,189.299
0.162,12.586,5.335,5.335,216.493,188.733,189.278
0.163,12.643,5.334,5.334,216.442,188.740,189.253
0.165,12.698,5.330,5.330,216.394,188.749,189.228
0.166,12.745,5.324,5.324,216.354,188.758,189.205
0.167,12.778,5.316,5.316,216.327,188.766,189.188
0.168,12.792,5.309,5.309,216.317,188.771,189.180
0.169,12.805,5.301,5.301,216.329,188.771,189.183
0.171,12.848,5.294,5.294,216.368,188.765,189.201
0.172,12.929,5.288,5.288,216.439,188.751,189.238
0.173,13.053,5.285,5.285,216.546,188.728,189.296
0.174,13.226,5.286,5.286,216.694,188.695,189.378
0.175,13.448,5.291,5.291,216.883,188.649,189.486
0.177,13.712,5.303,5.303,217.107,188.595,189.614
0.178,14.009,5.323,5.323,217.360,188.533,189.759
0.179,14.331,5.351,5.351,217.632,188.466,189.916
0.180,14.670,5.389,5.389,217.919,188.395,190.082
0.181,15.015,5.439,5.439,218.212,188.324,190.250
0.183,15.360,5.502,5.502,218.504,188.253,190.418
0.184,15.694,5.575,5.575,218.789,188.185,190.581
0.185,16.011,5.654,5.654,219.058,188.122,190.734
0.186,16.300,5.737,5.737,219.306,188.066,190.873
0.188,16.554,5.819,5.819,219.524,188.019,190.994
0.189,16.764,5.896,5.896,219.706,187.983,191.093
0.190,16.926,5.965,5.965,219.848,187.960,191.166
0.191,17.044,6.022,6.022,219.954,187.947,191.217
0.192,17.124,6.062,6.062,220.027,187.943,191.249
0.194,17.172,6.086,6.086,220.072,187.948,191.264
0.195,17.196,6.095,6.095,220.094,187.959,191.265
0.196,17.215,6.091,6.091,220.095,187.975,191.255
0.197,17.245,6.078,6.078,220.082,187.995,191.237
0.198,17.286,6.058,6.058,220.057,188.017,191.213
0.200,17.334,6.034,6.034,220.025,188.040,191.187
0.201,17.383,6.009,6.009,219.990,188.063,191.160
0.202,17.428,5.985,5.985,219.956,188.083,191.137
0.203,17.465,5.964,5.964,219.929,188.100,191.120
0.204,17.490,5.948,5.948,219.909,188.113,191.111
0.206,17.504,5.936,5.936,219.898,188.121,191.109
0.207,17.511,5.928,5.928,219.895,188.126,191.114
0.208,17.524,5.925,5.925,219.900,188.126,191.126
0.209,17.546,5.926,5.926,219.911,188.124,191.144
0.210,17.576,5.932,5.932,219.929,188.119,191.168
0.212,17.615,5.943,5.943,219.953,188.110,191.197
0.213,17.661,5.958,5.958,219.983,188.100,191.230
0.214,17.714,5.977,5.977,220.018,188.087,191.268
0.215,17.773,5.999,5.999,220.058,188.073,191.310
0.216,17.838,6.023,6.023,220.101,188.057,191.355
0.218,17.907,6.048,6.048,220.149,188.040,191.402
0.219,17.980,6.073,6.073,220.199,188.022,191.453
0.220,18.057,6.096,6.097,220.252,188.003,191.504
0.221,18.136,6.117,6.118,220.307,187.984,191.558
0.222,18.217,6.135,6.135,220.363,187.964,191.612
0.224,18.298,6.148,6.148,220.420,187.943,191.667
0.225,18.380,6.158,6.157,220.476,187.923,191.723
0.226,18.460,6.164,6.163,220.531,187.902,191.778
0.227,18.539,6.167,6.166,220.585,187.882,191.832
0.228,18.616,6.167,6.167,220.636,187.862,191.885
0.230,18.689,6.166,6.166,220.684,187.841,191.937
0.231,18.759,6.164,6.163,220.728,187.822,191.987
0.232,18.823,6.160,6.160,220.768,187.803,192.034
0.233,18.883,6.157,6.157,220.803,187.784,192.079
0.234,18.937,6.153,6.154,220.833,187.767,192.120
0.236,18.986,6.149,6.150,220.860,187.750,192.157
0.237,19.028,6.144,6.147,220.883,187.735,192.190
0.238,19.065,6.140,6.142,220.903,187.721,192.217
0.239,19.096,6.135,6.137,220.921,187.709,192.239
0.240,19.121,6.129,6.131,220.938,187.698,192.254
0.242,19.141,6.123,6.124,220.954,187.689,192.263
0.243,19.158,6.117,6.116,220.969,187.683,192.264
0.244,19.175,6.110,6.107,220.984,187.679,192.257
0.245,19.197,6.102,6.097,221.000,187.678,192.241
0.246,19.228,6.094,6.087,221.018,187.679,192.216
0.248,19.267,6.086,6.078,221.037,187.683,192.182
0.249,19.313,6.078,6.069,221.059,187.690,192.143
0.250,19.362,6.070,6.062,221.085,187.698,192.102
0.251,19.411,6.061,6.056,221.115,187.709,192.064
0.252,19.460,6.053,6.053,221.150,187.720,192.033
0.254,19.508,6.045,6.052,221.191,187.733,192.012
0.255,19.558,6.036,6.052,221.240,187.746,192.007
0.256,19.618,6.024,6.050,221.296,187.759,192.021
0.257,19.694,6.007,6.045,221.361,187.771,192.059
0.258,19.794,5.985,6.035,221.436,187.783,192.124
0.260,19.923,5.956,6.016,221.521,187.794,192.222
0.261,20.088,5.918,5.988,221.617,187.803,192.355
0.262,20.291,5.869,5.947,221.725,187.811,192.526
0.263,20.528,5.809,5.892,221.843,187.816,192.732
0.264,20.793,5.737,5.823,221.969,187.819,192.965
0.266,21.079,5.658,5.744,222.101,187.821,193.219
0.267,21.380,5.572,5.657,222.237,187.820,193.488
0.268,21.689,5.484,5.565,222.374,187.817,193.764
0.269,21.998,5.397,5.471,222.511,187.812,194.042
0.270,22.302,5.312,5.379,222.645,187.805,194.314
0.272,22.593,5.234,5.292,222.775,187.796,194.575
0.273,22.865,5.164,5.213,222.898,187.785,194.817
0.274,23.111,5.106,5.143,223.012,187.772,195.034
0.275,23.324,5.057,5.084,223.116,187.757,195.220
0.276,23.500,5.018,5.035,223.206,187.739,195.369
0.278,23.639,4.987,4.994,223.284,187.721,195.483
0.279,23.746,4.963,4.963,223.351,187.701,195.564
0.280,23.826,4.945,4.941,223.409,187.681,195.616
0.281,23.884,4.932,4.926,223.457,187.661,195.642
0.282,23.929,4.922,4.920,223.497,187.643,195.645
0.284,23.969,4.915,4.921,223.531,187.627,195.630
0.285,24.014,4.910,4.928,223.560,187.612,195.598
0.286,24.066,4.906,4.940,223.584,187.602,195.554
0.287,24.124,4.904,4.956,223.605,187.595,195.501
0.288,24.186,4.903,4.975,223.624,187.592,195.441
0.290,24.251,4.902,4.994,223.642,187.594,195.379
0.291,24.316,4.902,5.013,223.661,187.602,195.317
0.292,24.380,4.902,5.030,223.681,187.614,195.257
0.293,24.442,4.902,5.045,223.706,187.626,195.202
0.294,24.502,4.900,5.054,223.738,187.636,195.152
0.296,24.561,4.897,5.058,223.778,187.640,195.109
0.297,24.622,4.889,5.055,223.829,187.637,195.076
0.298,24.691,4.876,5.043,223.892,187.623,195.052
0.299,24.775,4.857,5.022,223.971,187.594,195.041
0.300,24.881,4.829,4.988,224.067,187.549,195.044
0.302,25.014,4.792,4.943,224.182,187.485,195.061
0.303,25.180,4.743,4.882,224.318,187.398,195.096
0.304,25.382,4.683,4.807,224.478,187.285,195.149
0.305,25.626,4.612,4.720,224.663,187.145,195.222
0.306,25.905,4.535,4.625,224.870,186.980,195.313
0.308,26.214,4.454,4.525,225.093,186.795,195.418
0.309,26.543,4.373,4.425,225.328,186.596,195.534
0.310,26.884,4.295,4.329,225.568,186.387,195.657
0.311,27.230,4.223,4.241,225.809,186.175,195.785
0.313,27.572,4.159,4.165,226.046,185.963,195.913
0.314,27.902,4.109,4.105,226.272,185.758,196.037
0.315,28.212,4.071,4.061,226.484,185.564,196.156
0.316,28.494,4.045,4.032,226.674,185.387,196.264
0.317,28.740,4.029,4.015,226.839,185.232,196.360
0.319,28.940,4.020,4.008,226.972,185.104,196.438
0.320,29.089,4.018,4.009,227.069,185.007,196.496
0.321,29.189,4.021,4.015,227.132,184.941,196.536
0.322,29.246,4.027,4.024,227.167,184.901,196.559
0.323,29.269,4.034,4.034,227.177,184.884,196.568
0.325,29.277,4.041,4.043,227.169,184.884,196.566
0.326,29.303,4.047,4.050,227.149,184.897,196.555
0.327,29.343,4.052,4.055,227.120,184.920,196.539
0.328,29.389,4.056,4.059,227.090,184.948,196.520
0.329,29.433,4.059,4.061,227.062,184.977,196.501
0.331,29.469,4.060,4.062,227.043,185.002,196.485
0.332,29.491,4.060,4.060,227.037,185.020,196.473
0.333,29.505,4.057,4.057,227.050,185.025,196.470
0.334,29.544,4.052,4.052,227.087,185.015,196.477
0.335,29.613,4.045,4.045,227.147,184.988,196.495
0.337,29.707,4.037,4.038,227.228,184.947,196.521
0.338,29.824,4.030,4.032,227.326,184.895,196.555
0.339,29.958,4.025,4.027,227.438,184.832,196.594
0.340,30.106,4.023,4.024,227.561,184.761,196.638
0.341,30.264,4.024,4.025,227.691,184.685,196.684
0.343,30.426,4.030,4.031,227.824,184.605,196.732
0.344,30.590,4.042,4.042,227.958,184.523,196.778
0.345,30.751,4.061,4.058,228.089,184.442,196.822
0.346,30.904,4.084,4.080,228.214,184.363,196.863
0.347,31.045,4.111,4.105,228.330,184.289,196.898
0.349,31.171,4.141,4.132,228.433,184.222,196.926
0.350,31.282,4.171,4.162,228.523,184.163,196.947
0.351,31.378,4.200,4.192,228.602,184.109,196.961
0.352,31.463,4.228,4.222,228.672,184.062,196.971
0.353,31.538,4.251,4.251,228.733,184.019,196.976
0.355,31.605,4.271,4.277,228.789,183.981,196.977
0.356,31.667,4.286,4.301,228.841,183.947,196.976
0.357,31.726,4.297,4.323,228.890,183.915,196.973
0.358,31.783,4.307,4.344,228.939,183.886,196.969
0.359,31.840,4.315,4.362,228.988,183.858,196.965
0.361,31.899,4.322,4.380,229.041,183.831,196.962
0.362,31.962,4.330,4.396,229.098,183.805,196.961
0.363,32.031,4.340,4.411,229.162,183.777,196.962
0.364,32.107,4.352,4.426,229.232,183.749,196.967
0.365,32.188,4.367,4.440,229.306,183.720,196.974
0.367,32.272,4.384,4.454,229.385,183.690,196.983
0.368,32.359,4.402,4.467,229.466,183.661,196.993
0.369,32.446,4.422,4.479,229.548,183.632,197.005
0.370,32.533,4.442,4.491,229.629,183.603,197.018
0.371,32.619,4.462,4.503,229.708,183.574,197.032
0.373,32.701,4.481,4.514,229.784,183.547,197.046
0.374,32.778,4.499,4.526,229.856,183.520,197.059
0.375,32.849,4.516,4.536,229.921,183.495,197.072
0.376,32.913,4.531,4.546,229.979,183.471,197.083
0.377,32.968,4.543,4.556,230.028,183.449,197.093
0.379,33.014,4.554,4.564,230.068,183.430,197.102
0.380,33.050,4.563,4.572,230.100,183.412,197.109
0.381,33.078,4.569,4.578,230.123,183.398,197.114
0.382,33.097,4.574,4.582,230.138,183.387,197.118
0.383,33.108,4.576,4.585,230.146,183.379,197.119
0.385,33.113,4.575,4.586,230.148,183.375,197.119
0.386,33.118,4.573,4.585,230.143,183.375,197.118
0.387,33.130,4.569,4.582,230.132,183.380,197.115
0.388,33.149,4.563,4.577,230.117,183.390,197.109
0.389,33.176,4.556,4.570,230.096,183.406,197.103
0.391,33.209,4.548,4.560,230.071,183.427,197.094
0.392,33.250,4.540,4.549,230.043,183.454,197.084
0.393,33.296,4.532,4.536,230.012,183.486,197.072
0.394,33.343,4.523,4.522,229.982,183.520,197.061
0.395,33.388,4.516,4.505,229.953,183.553,197.051
0.397,33.426,4.509,4.489,229.929,183.582,197.042
0.398,33.453,4.504,4.476,229.912,183.603,197.038
0.399,33.467,4.500,4.466,229.905,183.614,197.038
0.400,33.474,4.499,4.463,229.908,183.611,197.043
0.401,33.503,4.500,4.467,229.926,183.592,197.056
0.403,33.559,4.504,4.482,229.960,183.554,197.077
0.404,33.645,4.512,4.508,230.013,183.493,197.107
0.405,33.765,4.523,4.547,230.087,183.406,197.148
0.406,33.925,4.539,4.599,230.183,183.291,197.201
0.407,34.123,4.560,4.660,230.303,183.147,197.265
0.409,34.354,4.588,4.729,230.444,182.980,197.340
0.410,34.612,4.623,4.803,230.601,182.794,197.425
0.411,34.891,4.666,4.881,230.772,182.594,197.519
0.412,35.185,4.719,4.959,230.954,182.386,197.620
0.413,35.489,4.781,5.036,231.143,182.175,197.728
0.415,35.796,4.854,5.110,231.337,181.965,197.842
0.416,36.101,4.937,5.179,231.531,181.762,197.960
0.417,36.397,5.026,5.243,231.724,181.571,198.081
0.418,36.681,5.120,5.302,231.910,181.397,198.204
0.419,36.946,5.214,5.358,232.088,181.245,198.329
0.421,37.189,5.307,5.409,232.255,181.120,198.453
0.422,37.407,5.393,5.455,232.408,181.024,198.576
0.423,37.606,5.471,5.498,232.549,180.954,198.697
0.424,37.786,5.538,5.537,232.680,180.906,198.812
0.425,37.953,5.591,5.573,232.802,180.877,198.921
0.427,38.106,5.632,5.605,232.917,180.863,199.021
0.428,38.248,5.663,5.634,233.027,180.861,199.111
0.429,38.380,5.687,5.661,233.133,180.866,199.189
0.430,38.503,5.705,5.686,233.237,180.877,199.254
0.431,38.618,5.722,5.710,233.341,180.888,199.303
0.433,38.728,5.738,5.734,233.446,180.897,199.335
0.434,38.837,5.757,5.756,233.553,180.899,199.348
0.435,38.949,5.780,5.780,233.666,180.892,199.340
0.436,39.072,5.808,5.803,233.783,180.873,199.311
0.438,39.207,5.840,5.829,233.906,180.843,199.263
0.439,39.355,5.875,5.856,234.033,180.801,199.200
0.440,39.515,5.911,5.887,234.164,180.750,199.124
0.441,39.686,5.947,5.921,234.299,180.689,199.038
0.442,39.866,5.983,5.959,234.437,180.620,198.945
0.444,40.054,6.016,6.002,234.578,180.542,198.848
0.445,40.247,6.046,6.051,234.721,180.457,198.750
0.446,40.443,6.073,6.106,234.865,180.365,198.653
0.447,40.642,6.096,6.165,235.011,180.267,198.561
0.448,40.840,6.119,6.226,235.157,180.164,198.476
0.450,41.037,6.141,6.289,235.304,180.056,198.401
0.451,41.232,6.163,6.352,235.450,179.944,198.339
0.452,41.423,6.188,6.412,235.595,179.829,198.287
0.453,41.610,6.215,6.469,235.736,179.714,198.245
0.454,41.791,6.247,6.522,235.872,179.600,198.212
0.456,41.965,6.284,6.567,236.003,179.488,198.188
0.457,42.130,6.325,6.607,236.126,179.379,198.170
0.458,42.285,6.368,6.640,236.241,179.276,198.157
0.459,42.427,6.411,6.668,236.345,179.180,198.150
0.460,42.554,6.454,6.690,236.438,179.093,198.146
0.462,42.666,6.493,6.708,236.518,179.015,198.144
0.463,42.759,6.527,6.722,236.584,178.949,198.144
0.464,42.832,6.555,6.731,236.634,178.896,198.143
0.465,42.883,6.574,6.738,236.667,178.857,198.143
0.466,42.917,6.585,6.741,236.688,178.831,198.142
0.468,42.936,6.589,6.742,236.697,178.814,198.140
0.469,42.944,6.587,6.742,236.698,178.806,198.138
0.470,42.949,6.582,6.740,236.694,178.805,198.137
0.471,42.957,6.574,6.738,236.687,178.809,198.135
0.472,42.966,6.565,6.736,236.680,178.816,198.133
0.474,42.975,6.558,6.735,236.677,178.824,198.132
0.475,42.983,6.554,6.736,236.678,178.831,198.131
0.476,42.994,6.553,6.739,236.689,178.836,198.131
0.477,43.016,6.556,6.743,236.711,178.836,198.132
0.478,43.052,6.563,6.749,236.746,178.829,198.133
0.480,43.105,6.573,6.757,236.798,178.816,198.135
0.481,43.174,6.585,6.765,236.863,178.795,198.139
0.482,43.255,6.600,6.775,236.940,178.769,198.142
0.483,43.346,6.617,6.786,237.025,178.738,198.146
0.484,43.444,6.635,6.796,237.117,178.704,198.150
0.486,43.547,6.654,6.808,237.213,178.667,198.154
0.487,43.652,6.674,6.819,237.311,178.629,198.158
0.488,43.756,6.693,6.830,237.408,178.591,198.161
0.489,43.856,6.713,6.841,237.501,178.554,198.163
0.490,43.950,6.731,6.851,237.588,178.519,198.164
