"T","Distance","Radius","FreeRadius","X","Y","Z"
0.000,0.000,2.672,2.672,193.418,219.750,180.040
0.002,0.033,2.675,2.675,193.396,219.760,180.062
0.003,0.066,2.678,2.678,193.373,219.771,180.083
0.005,0.099,2.681,2.681,193.351,219.782,180.105
0.006,0.130,2.684,2.684,193.330,219.792,180.126
0.008,0.161,2.688,2.688,193.309,219.802,180.147
0.009,0.191,2.691,2.691,193.289,219.812,180.167
0.011,0.220,2.694,2.694,193.270,219.821,180.186
0.012,0.247,2.697,2.697,193.251,219.829,180.205
0.014,0.273,2.701,2.701,193.235,219.837,180.222
0.015,0.297,2.704,2.704,193.219,219.844,180.239
0.017,0.318,2.708,2.708,193.205,219.851,180.254
0.018,0.338,2.711,2.711,193.193,219.856,180.268
0.020,0.357,2.715,2.715,193.181,219.861,180.283
0.022,0.380,2.718,2.718,193.168,219.868,180.300
0.023,0.408,2.722,2.722,193.152,219.877,180.321
0.025,0.446,2.728,2.728,193.130,219.890,180.350
0.026,0.497,2.735,2.735,193.101,219.907,180.387
0.028,0.564,2.746,2.746,193.063,219.931,180.437
0.029,0.650,2.761,2.761,193.014,219.963,180.500
0.031,0.759,2.780,2.780,192.952,220.003,180.580
0.032,0.894,2.806,2.806,192.875,220.053,180.679
0.034,1.058,2.842,2.842,192.780,220.115,180.798
0.035,1.255,2.892,2.892,192.667,220.190,180.941
0.037,1.484,2.961,2.961,192.535,220.277,181.107
0.039,1.740,3.052,3.052,192.388,220.375,181.292
0.040,2.015,3.169,3.169,192.229,220.481,181.490
0.042,2.303,3.315,3.315,192.063,220.591,181.698
0.043,2.596,3.482,3.482,191.893,220.703,181.909
0.045,2.888,3.659,3.659,191.725,220.815,182.119
0.046,3.171,3.833,3.833,191.561,220.924,182.323
0.048,3.439,3.993,3.993,191.407,221.026,182.516
0.049,3.684,4.126,4.126,191.265,221.120,182.692
0.051,3.899,4.221,4.221,191.140,221.202,182.848
0.052,4.078,4.271,4.271,191.037,221.270,182.977
0.054,4.214,4.287,4.287,190.958,221.322,183.075
0.055,4.311,4.278,4.278,190.902,221.358,183.145
0.057,4.372,4.254,4.254,190.866,221.382,183.189
0.059,4.405,4.226,4.226,190.846,221.396,183.211
0.060,4.415,4.205,4.205,190.840,221.403,183.215
0.062,4.427,4.201,4.201,190.844,221.405,183.205
0.063,4.450,4.213,4.213,190.855,221.405,183.184
0.065,4.482,4.238,4.238,190.870,221.406,183.156
0.066,4.518,4.271,4.271,190.885,221.411,183.124
0.068,4.553,4.308,4.308,190.897,221.421,183.092
0.069,4.588,4.345,4.345,190.904,221.440,183.064
0.071,4.625,4.375,4.375,190.901,221.470,183.043
0.072,4.670,4.397,4.397,190.888,221.512,183.031
0.074,4.727,4.411,4.411,190.866,221.564,183.026
0.076,4.793,4.420,4.420,190.837,221.623,183.028
0.077,4.867,4.425,4.425,190.802,221.688,183.035
0.079,4.947,4.427,4.427,190.762,221.757,183.046
0.080,5.030,4.430,4.430,190.720,221.827,183.060
0.082,5.113,4.434,4.434,190.677,221.897,183.076
0.083,5.195,4.439,4.439,190.633,221.963,183.092
0.085,5.271,4.446,4.446,190.592,222.026,183.108
0.086,5.340,4.453,4.453,190.553,222.081,183.122
0.088,5.399,4.460,4.460,190.520,222.128,183.133
0.089,5.446,4.465,4.465,190.492,222.165,183.140
0.091,5.482,4.469,4.469,190.470,222.193,183.145
0.092,5.509,4.470,4.470,190.453,222.215,183.147
0.094,5.530,4.469,4.469,190.441,222.231,183.149
0.096,5.546,4.468,4.468,190.433,222.245,183.150
0.097,5.559,4.468,4.468,190.428,222.257,183.153
0.099,5.573,4.471,4.471,190.426,222.270,183.158
0.100,5.591,4.478,4.478,190.427,222.286,183.167
0.102,5.615,4.490,4.490,190.431,222.306,183.179
0.103,5.647,4.507,4.507,190.435,222.332,183.197
0.105,5.690,4.529,4.529,190.441,222.367,183.222
0.106,5.745,4.554,4.554,190.448,222.411,183.253
0.108,5.811,4.581,4.581,190.455,222.465,183.292
0.109,5.887,4.609,4.609,190.462,222.526,183.336
0.111,5.968,4.638,4.638,190.469,222.591,183.384
0.112,6.053,4.665,4.665,190.477,222.658,183.435
0.114,6.139,4.690,4.690,190.485,222.726,183.488
0.116,6.224,4.715,4.715,190.494,222.791,183.542
0.117,6.305,4.738,4.738,190.502,222.852,183.594
0.119,6.379,4.760,4.760,190.510,222.906,183.645
0.120,6.445,4.780,4.780,190.519,222.951,183.692
0.122,6.499,4.799,4.799,190.527,222.985,183.734
0.123,6.542,4.817,4.817,190.536,223.005,183.770
0.125,6.573,4.832,4.832,190.544,223.011,183.799
0.126,6.598,4.845,4.845,190.552,223.009,183.823
0.128,6.619,4.855,4.855,190.560,223.002,183.841
0.129,6.636,4.862,4.862,190.567,222.996,183.855
0.131,6.648,4.866,4.866,190.575,222.995,183.865
0.133,6.662,4.865,4.865,190.582,223.005,183.871
0.134,6.687,4.861,4.861,190.589,223.028,183.876
0.136,6.731,4.853,4.853,190.596,223.072,183.878
0.137,6.799,4.842,4.842,190.602,223.140,183.880
0.139,6.896,4.830,4.830,190.608,223.237,183.881
0.140,7.027,4.816,4.816,190.614,223.367,183.883
0.142,7.195,4.800,4.800,190.619,223.535,183.886
0.143,7.396,4.784,4.784,190.624,223.736,183.891
0.145,7.623,4.767,4.767,190.627,223.963,183.897
0.146,7.869,4.749,4.749,190.629,224.209,183.905
0.148,8.128,4.729,4.729,190.629,224.468,183.916
0.149,8.393,4.707,4.707,190.627,224.732,183.930
0.151,8.657,4.682,4.682,190.623,224.995,183.947
0.153,8.913,4.655,4.655,190.615,225.251,183.967
0.154,9.155,4.626,4.626,190.605,225.492,183.991
0.156,9.377,4.596,4.596,190.591,225.711,184.019
0.157,9.572,4.569,4.569,190.572,225.903,184.051
0.159,9.735,4.545,4.545,190.550,226.059,184.088
0.160,9.866,4.525,4.525,190.523,226.181,184.129
0.162,9.970,4.512,4.512,190.493,226.270,184.175
0.163,10.056,4.507,4.507,190.458,226.331,184.223
0.165,10.129,4.508,4.508,190.420,226.369,184.273
0.166,10.198,4.515,4.515,190.379,226.388,184.325
0.168,10.266,4.527,4.527,190.336,226.391,184.378
0.169,10.337,4.542,4.542,190.290,226.382,184.431
0.171,10.410,4.560,4.560,190.241,226.367,184.483
0.173,10.484,4.580,4.580,190.191,226.349,184.535
0.174,10.558,4.600,4.600,190.139,226.331,184.584
0.176,10.630,4.620,4.620,190.086,226.319,184.631
0.177,10.700,4.640,4.640,190.032,226.315,184.674
0.179,10.770,4.658,4.658,189.976,226.321,184.717
0.180,10.846,4.674,4.674,189.917,226.337,184.762
0.182,10.928,4.688,4.688,189.856,226.364,184.809
0.183,11.021,4.698,4.698,189.790,226.404,184.862
0.185,11.127,4.704,4.704,189.720,226.456,184.922
0.186,11.249,4.705,4.705,189.645,226.522,184.993
0.188,11.389,4.701,4.701,189.564,226.602,185.074
0.190,11.550,4.691,4.691,189.476,226.697,185.170
0.191,11.734,4.674,4.674,189.381,226.808,185.281
0.193,11.943,4.651,4.651,189.279,226.937,185.411
0.194,12.180,4.623,4.623,189.168,227.082,185.560
0.196,12.441,4.596,4.596,189.049,227.244,185.728
0.197,12.724,4.577,4.577,188.925,227.420,185.912
0.199,13.025,4.573,4.573,188.797,227.608,186.109
0.200,13.341,4.588,4.588,188.667,227.806,186.317
0.202,13.666,4.630,4.630,188.536,228.012,186.533
0.203,13.999,4.703,4.703,188.407,228.224,186.755
0.205,14.335,4.803,4.803,188.282,228.440,186.979
0.206,14.670,4.924,4.924,188.161,228.658,187.203
0.208,15.001,5.059,5.059,188.047,228.875,187.425
0.210,15.324,5.201,5.201,187.942,229.090,187.642
0.211,15.636,5.344,5.344,187.847,229.301,187.851
0.213,15.934,5.482,5.482,187.764,229.506,188.051
0.214,16.217,5.609,5.609,187.691,229.704,188.240
0.216,16.485,5.726,5.726,187.627,229.893,188.419
0.217,16.736,5.833,5.833,187.572,230.073,188.586
0.219,16.971,5.932,5.932,187.526,230.242,188.741
0.220,17.187,6.022,6.022,187.486,230.399,188.884
0.222,17.383,6.104,6.104,187.454,230.543,189.014
0.223,17.560,6.178,6.178,187.427,230.673,189.130
0.225,17.715,6.244,6.244,187.405,230.787,189.232
0.227,17.847,6.303,6.303,187.387,230.885,189.320
0.228,17.956,6.353,6.353,187.373,230.966,189.392
0.230,18.041,6.395,6.395,187.362,231.028,189.448
0.231,18.103,6.429,6.429,187.353,231.072,189.490
0.233,18.145,6.454,6.454,187.346,231.102,189.519
0.234,18.169,6.470,6.470,187.342,231.118,189.537
0.236,18.177,6.479,6.479,187.339,231.122,189.544
0.237,18.184,6.480,6.480,187.339,231.115,189.543
0.239,18.201,6.475,6.475,187.340,231.101,189.534
0.240,18.227,6.464,6.464,187.343,231.080,189.520
0.242,18.259,6.448,6.448,187.347,231.053,189.501
0.243,18.296,6.427,6.427,187.352,231.024,189.480
0.245,18.335,6.404,6.404,187.359,230.993,189.456
0.247,18.374,6.379,6.379,187.366,230.963,189.433
0.248,18.410,6.356,6.356,187.374,230.934,189.411
0.250,18.443,6.336,6.336,187.381,230.909,189.392
0.251,18.471,6.321,6.321,187.388,230.888,189.376
0.253,18.490,6.314,6.314,187.392,230.873,189.364
0.254,18.501,6.316,6.316,187.395,230.865,189.358
0.256,18.502,6.325,6.325,187.393,230.865,189.359
0.257,18.516,6.339,6.340,187.388,230.874,189.368
0.259,18.545,6.358,6.358,187.378,230.895,189.386
0.260,18.591,6.378,6.379,187.363,230.928,189.414
0.262,18.656,6.399,6.399,187.341,230.974,189.454
0.263,18.741,6.418,6.418,187.312,231.035,189.505
0.265,18.846,6.435,6.435,187.276,231.111,189.569
0.267,18.969,6.451,6.449,187.233,231.198,189.644
0.268,19.105,6.464,6.463,187.185,231.295,189.726
0.270,19.250,6.477,6.475,187.132,231.397,189.814
0.271,19.399,6.488,6.487,187.076,231.502,189.905
0.273,19.550,6.498,6.498,187.016,231.606,189.996
0.274,19.697,6.508,6.510,186.955,231.706,190.085
0.276,19.838,6.516,6.521,186.892,231.799,190.170
0.277,19.968,6.523,6.529,186.829,231.882,190.248
0.279,20.084,6.526,6.533,186.767,231.951,190.316
0.280,20.182,6.526,6.532,186.707,232.004,190.373
0.282,20.262,6.521,6.524,186.649,232.038,190.416
0.284,20.327,6.511,6.508,186.594,232.057,190.446
0.285,20.383,6.496,6.485,186.542,232.067,190.465
0.287,20.433,6.476,6.458,186.494,232.073,190.475
0.288,20.480,6.453,6.430,186.448,232.083,190.478
0.290,20.526,6.428,6.404,186.406,232.101,190.477
0.291,20.578,6.401,6.383,186.367,232.134,190.472
0.293,20.643,6.373,6.371,186.331,232.188,190.467
0.294,20.730,6.345,6.369,186.300,232.270,190.463
0.296,20.848,6.316,6.374,186.272,232.384,190.462
0.297,21.003,6.283,6.381,186.248,232.538,190.466
0.299,21.203,6.246,6.384,186.229,232.736,190.477
0.300,21.447,6.202,6.377,186.213,232.979,190.496
0.302,21.728,6.150,6.355,186.201,233.259,190.522
0.304,22.038,6.087,6.312,186.193,233.567,190.552
0.305,22.367,6.014,6.247,186.189,233.894,190.586
0.307,22.707,5.935,6.167,186.188,234.232,190.621
0.308,23.049,5.853,6.077,186.190,234.573,190.657
0.310,23.386,5.772,5.985,186.195,234.908,190.693
0.311,23.709,5.696,5.897,186.203,235.229,190.725
0.313,24.008,5.628,5.821,186.213,235.527,190.754
0.314,24.276,5.572,5.761,186.226,235.793,190.778
0.316,24.505,5.528,5.718,186.241,236.020,190.795
0.317,24.687,5.495,5.689,186.258,236.202,190.805
0.319,24.829,5.472,5.671,186.277,236.342,190.808
0.320,24.935,5.456,5.661,186.296,236.447,190.806
0.322,25.013,5.448,5.656,186.316,236.522,190.802
0.324,25.068,5.445,5.654,186.335,236.573,190.797
0.325,25.106,5.446,5.652,186.353,236.606,190.793
0.327,25.132,5.451,5.650,186.369,236.627,190.791
0.328,25.153,5.457,5.648,186.383,236.642,190.793
0.330,25.173,5.463,5.645,186.394,236.657,190.801
0.331,25.199,5.469,5.640,186.401,236.677,190.817
0.333,25.240,5.472,5.635,186.403,236.709,190.842
0.334,25.301,5.472,5.628,186.401,236.757,190.878
0.336,25.382,5.469,5.620,186.394,236.823,190.925
0.337,25.479,5.464,5.611,186.384,236.903,190.980
0.339,25.590,5.458,5.602,186.370,236.993,191.042
0.341,25.709,5.452,5.595,186.353,237.091,191.109
0.342,25.834,5.447,5.588,186.335,237.194,191.178
0.344,25.961,5.444,5.584,186.316,237.297,191.248
0.345,26.085,5.444,5.582,186.296,237.398,191.317
0.347,26.203,5.447,5.581,186.277,237.494,191.383
0.348,26.311,5.450,5.582,186.259,237.581,191.444
0.350,26.405,5.455,5.584,186.243,237.657,191.499
0.351,26.482,5.459,5.585,186.229,237.717,191.544
0.353,26.539,5.461,5.585,186.219,237.761,191.580
0.354,26.580,5.462,5.584,186.211,237.791,191.607
0.356,26.607,5.461,5.581,186.206,237.809,191.626
0.357,26.623,5.459,5.577,186.204,237.818,191.639
0.359,26.630,5.455,5.571,186.204,237.820,191.646
0.361,26.634,5.451,5.565,186.206,237.819,191.648
0.362,26.639,5.446,5.558,186.210,237.815,191.648
0.364,26.646,5.442,5.551,186.215,237.813,191.645
0.365,26.654,5.438,5.544,186.223,237.814,191.641
0.367,26.666,5.434,5.536,186.231,237.822,191.636
0.368,26.685,5.431,5.528,186.241,237.838,191.633
0.370,26.713,5.427,5.519,186.251,237.864,191.632
0.371,26.752,5.423,5.508,186.262,237.901,191.634
0.373,26.799,5.418,5.495,186.273,237.947,191.638
0.374,26.854,5.412,5.481,186.283,238.001,191.645
0.376,26.916,5.404,5.464,186.293,238.061,191.655
0.378,26.984,5.395,5.446,186.301,238.127,191.669
0.379,27.056,5.384,5.427,186.307,238.196,191.686
0.381,27.132,5.371,5.408,186.311,238.269,191.708
0.382,27.211,5.356,5.389,186.312,238.344,191.734
0.384,27.291,5.338,5.372,186.310,238.418,191.764
0.385,27.374,5.318,5.355,186.305,238.493,191.800
0.387,27.457,5.296,5.340,186.295,238.565,191.840
0.388,27.541,5.273,5.327,186.281,238.635,191.885
0.390,27.627,5.250,5.316,186.263,238.702,191.935
0.391,27.715,5.228,5.307,186.242,238.769,191.989
0.393,27.805,5.208,5.301,186.217,238.834,192.046
0.394,27.898,5.191,5.296,186.190,238.898,192.107
0.396,27.992,5.176,5.294,186.161,238.961,192.170
0.398,28.089,5.165,5.293,186.129,239.025,192.236
0.399,28.188,5.155,5.293,186.097,239.089,192.303
0.401,28.288,5.147,5.293,186.063,239.154,192.372
0.402,28.390,5.139,5.293,186.028,239.219,192.442
0.404,28.494,5.131,5.291,185.993,239.287,192.513
0.405,28.598,5.123,5.287,185.957,239.356,192.583
0.407,28.703,5.115,5.282,185.923,239.426,192.653
0.408,28.808,5.106,5.276,185.889,239.497,192.722
0.410,28.912,5.098,5.268,185.856,239.569,192.789
0.411,29.013,5.090,5.261,185.825,239.641,192.853
0.413,29.112,5.083,5.254,185.796,239.713,192.914
0.414,29.207,5.077,5.248,185.769,239.784,192.972
0.416,29.298,5.073,5.243,185.746,239.854,193.025
0.418,29.384,5.069,5.238,185.726,239.922,193.074
0.419,29.465,5.067,5.234,185.710,239.989,193.116
0.421,29.540,5.064,5.230,185.698,240.053,193.153
0.422,29.608,5.061,5.225,185.691,240.114,193.183
0.424,29.671,5.058,5.220,185.688,240.172,193.206
0.425,29.728,5.053,5.213,185.688,240.226,193.225
0.427,29.778,5.048,5.205,185.689,240.274,193.239
0.428,29.822,5.042,5.197,185.691,240.316,193.251
0.430,29.858,5.035,5.190,185.693,240.352,193.261
0.431,29.887,5.029,5.184,185.693,240.379,193.270
0.433,29.908,5.023,5.181,185.691,240.397,193.279
0.435,29.923,5.017,5.182,185.684,240.406,193.290
0.436,29.940,5.013,5.186,185.673,240.403,193.303
0.438,29.968,5.010,5.194,185.656,240.390,193.320
0.439,30.009,5.009,5.206,185.632,240.364,193.341
0.441,30.064,5.011,5.221,185.602,240.327,193.368
0.442,30.125,5.017,5.238,185.567,240.286,193.398
0.444,30.186,5.026,5.258,185.532,240.248,193.430
0.445,30.241,5.039,5.279,185.500,240.219,193.464
0.447,30.286,5.055,5.300,185.473,240.205,193.497
0.448,30.324,5.068,5.316,185.454,240.214,193.529
0.450,30.372,5.076,5.323,185.447,240.251,193.559
0.451,30.449,5.072,5.316,185.455,240.323,193.584
0.453,30.568,5.054,5.291,185.480,240.438,193.604
0.455,30.738,5.016,5.243,185.526,240.601,193.617
0.456,30.967,4.958,5.171,185.596,240.818,193.623
0.458,31.259,4.885,5.084,185.691,241.095,193.619
0.459,31.608,4.809,4.994,185.809,241.423,193.608
0.461,32.002,4.738,4.911,185.944,241.793,193.591
0.462,32.428,4.683,4.848,186.092,242.192,193.568
0.464,32.875,4.653,4.816,186.247,242.610,193.542
0.465,33.332,4.658,4.828,186.406,243.037,193.514
0.467,33.786,4.698,4.881,186.563,243.462,193.485
0.468,34.226,4.765,4.966,186.713,243.875,193.457
0.470,34.639,4.848,5.067,186.853,244.263,193.431
0.471,35.015,4.938,5.172,186.976,244.618,193.408
0.473,35.342,5.025,5.267,187.078,244.928,193.391
0.475,35.608,5.099,5.340,187.154,245.182,193.380
0.476,35.813,5.152,5.380,187.205,245.381,193.375
0.478,35.965,5.185,5.390,187.232,245.531,193.377
0.479,36.073,5.202,5.379,187.240,245.638,193.384
0.481,36.147,5.209,5.356,187.231,245.710,193.396
0.482,36.200,5.209,5.331,187.207,245.754,193.414
0.484,36.246,5.206,5.311,187.173,245.777,193.435
0.485,36.295,5.206,5.307,187.131,245.786,193.460
0.487,36.350,5.210,5.320,187.085,245.787,193.488
0.488,36.407,5.219,5.349,187.036,245.788,193.519
0.490,36.465,5.233,5.389,186.989,245.795,193.552
0.492,36.524,5.250,5.434,186.947,245.816,193.586
0.493,36.588,5.271,5.482,186.910,245.855,193.622
0.495,36.661,5.296,5.527,186.878,245.910,193.658
0.496,36.742,5.324,5.566,186.850,245.977,193.694
0.498,36.831,5.353,5.598,186.824,246.054,193.729
0.499,36.924,5.383,5.623,186.799,246.138,193.762
0.501,37.020,5.410,5.642,186.772,246.225,193.794
0.502,37.117,5.434,5.654,186.744,246.312,193.823
0.504,37.211,5.452,5.661,186.712,246.397,193.849
0.505,37.301,5.462,5.663,186.674,246.476,193.871
0.507,37.387,5.464,5.661,186.630,246.547,193.889
0.508,37.466,5.460,5.657,186.578,246.606,193.901
0.510,37.543,5.452,5.651,186.517,246.651,193.908
0.512,37.619,5.443,5.646,186.448,246.684,193.910
0.513,37.695,5.434,5.644,186.377,246.710,193.908
0.515,37.769,5.429,5.647,186.307,246.733,193.902
0.516,37.840,5.429,5.655,186.240,246.757,193.893
0.518,37.906,5.433,5.667,186.182,246.786,193.883
0.519,37.968,5.441,5.681,186.136,246.825,193.872
0.521,38.030,5.451,5.693,186.105,246.878,193.861
0.522,38.103,5.462,5.700,186.093,246.950,193.851
0.524,38.199,5.471,5.699,186.105,247.044,193.842
0.525,38.326,5.477,5.686,186.143,247.165,193.836
0.527,38.493,5.480,5.662,186.212,247.318,193.833
0.529,38.701,5.483,5.631,186.309,247.502,193.835
0.530,38.944,5.490,5.601,186.427,247.714,193.841
0.532,39.213,5.506,5.579,186.557,247.949,193.853
0.533,39.501,5.534,5.572,186.692,248.203,193.872
0.535,39.800,5.578,5.588,186.821,248.471,193.898
0.536,40.104,5.643,5.633,186.939,248.750,193.931
0.538,40.407,5.724,5.704,187.035,249.034,193.974
0.539,40.704,5.811,5.789,187.101,249.319,194.026
0.541,40.995,5.896,5.875,187.129,249.601,194.088
0.542,41.280,5.967,5.952,187.112,249.876,194.161
0.544,41.566,6.014,6.007,187.039,250.140,194.245
0.545,41.863,6.028,6.028,186.907,250.387,194.342
0.547,42.179,6.003,6.008,186.721,250.620,194.449
0.549,42.516,5.947,5.955,186.489,250.836,194.563
0.550,42.872,5.876,5.884,186.221,251.037,194.683
0.552,43.243,5.801,5.808,185.925,251.223,194.807
0.553,43.622,5.737,5.742,185.610,251.394,194.931
0.555,44.004,5.697,5.699,185.284,251.550,195.055
0.556,44.381,5.694,5.693,184.956,251.692,195.175
0.558,44.745,5.731,5.726,184.635,251.820,195.289
0.559,45.089,5.798,5.789,184.329,251.933,195.395
0.561,45.403,5.883,5.871,184.046,252.033,195.492
0.562,45.681,5.975,5.964,183.796,252.119,195.576
0.564,45.921,6.063,6.055,183.579,252.192,195.647
0.565,46.126,6.137,6.136,183.393,252.254,195.708
0.567,46.301,6.188,6.198,183.234,252.305,195.760
0.569,46.448,6.215,6.241,183.099,252.347,195.803
0.570,46.572,6.226,6.268,182.986,252.381,195.839
0.572,46.675,6.223,6.285,182.892,252.408,195.870
0.573,46.761,6.213,6.295,182.812,252.429,195.897
0.575,46.835,6.200,6.301,182.745,252.445,195.922
0.576,46.898,6.189,6.307,182.687,252.458,195.945
0.578,46.956,6.182,6.316,182.636,252.468,195.968
0.579,47.011,6.180,6.326,182.587,252.478,195.993
0.581,47.067,6.182,6.336,182.540,252.487,196.020
0.582,47.122,6.186,6.346,182.494,252.497,196.049
0.584,47.177,6.193,6.354,182.448,252.506,196.080
0.586,47.232,6.201,6.359,182.404,252.517,196.111
0.587,47.287,6.210,6.360,182.361,252.528,196.142
0.589,47.341,6.220,6.358,182.319,252.541,196.172
0.590,47.393,6.231,6.353,182.277,252.555,196.202
0.592,47.445,6.241,6.347,182.237,252.571,196.230
0.593,47.495,6.251,6.341,182.198,252.589,196.256
0.595,47.544,6.260,6.335,182.160,252.609,196.279
0.596,47.592,6.268,6.330,182.123,252.632,196.299
0.598,47.639,6.276,6.327,182.087,252.658,196.315
0.599,47.685,6.282,6.327,182.053,252.687,196.327
0.601,47.732,6.288,6.328,182.019,252.717,196.336
0.602,47.778,6.293,6.330,181.987,252.750,196.343
0.604,47.824,6.297,6.334,181.956,252.783,196.346
0.606,47.869,6.300,6.338,181.925,252.817,196.348
0.607,47.914,6.303,6.344,181.897,252.851,196.348
0.609,47.958,6.306,6.350,181.869,252.885,196.347
0.610,48.000,6.308,6.356,181.843,252.919,196.344
0.612,48.041,6.309,6.362,181.817,252.951,196.342
0.613,48.080,6.310,6.368,181.794,252.981,196.339
0.615,48.116,6.309,6.374,181.771,253.009,196.336
0.616,48.150,6.309,6.379,181.749,253.035,196.334
0.618,48.182,6.307,6.384,181.728,253.060,196.334
0.619,48.213,6.305,6.388,181.707,253.082,196.335
0.621,48.243,6.304,6.391,181.686,253.103,196.340
0.622,48.274,6.304,6.394,181.664,253.123,196.347
0.624,48.307,6.307,6.397,181.640,253.142,196.359
0.626,48.343,6.312,6.399,181.615,253.161,196.376
0.627,48.383,6.320,6.401,181.587,253.180,196.399
0.629,48.429,6.331,6.404,181.556,253.199,196.427
