"T","Distance","Radius","FreeRadius","X","Y","Z"
0.000,0.000,2.262,2.262,74.865,-51.114,-2.079
0.001,0.266,2.424,2.424,74.725,-51.165,-2.300
0.003,0.531,2.586,2.586,74.586,-51.215,-2.519
0.004,0.790,2.745,2.745,74.450,-51.264,-2.734
0.006,1.042,2.902,2.902,74.318,-51.311,-2.943
0.007,1.285,3.056,3.056,74.190,-51.355,-3.145
0.009,1.515,3.206,3.206,74.068,-51.395,-3.337
0.010,1.732,3.351,3.351,73.954,-51.431,-3.517
0.012,1.931,3.490,3.490,73.848,-51.462,-3.684
0.013,2.112,3.621,3.621,73.752,-51.487,-3.835
0.015,2.272,3.743,3.743,73.667,-51.506,-3.969
0.016,2.408,3.851,3.851,73.595,-51.518,-4.083
0.018,2.518,3.946,3.946,73.535,-51.522,-4.176
0.019,2.603,4.024,4.024,73.490,-51.517,-4.247
0.021,2.664,4.083,4.083,73.457,-51.505,-4.298
0.022,2.708,4.124,4.124,73.435,-51.486,-4.331
0.024,2.742,4.149,4.149,73.423,-51.461,-4.350
0.025,2.773,4.162,4.162,73.419,-51.431,-4.356
0.027,2.808,4.164,4.164,73.421,-51.396,-4.353
0.028,2.848,4.161,4.161,73.428,-51.358,-4.344
0.030,2.893,4.153,4.153,73.438,-51.316,-4.330
0.031,2.941,4.145,4.145,73.449,-51.272,-4.314
0.033,2.990,4.139,4.139,73.461,-51.227,-4.299
0.034,3.039,4.136,4.136,73.471,-51.181,-4.288
0.036,3.085,4.136,4.136,73.478,-51.135,-4.283
0.037,3.131,4.142,4.142,73.481,-51.090,-4.286
0.038,3.176,4.153,4.153,73.481,-51.046,-4.296
0.040,3.221,4.171,4.171,73.477,-51.004,-4.312
0.041,3.267,4.198,4.198,73.471,-50.964,-4.334
0.043,3.313,4.231,4.231,73.463,-50.926,-4.360
0.044,3.359,4.268,4.268,73.454,-50.892,-4.389
0.046,3.405,4.308,4.308,73.443,-50.861,-4.421
0.047,3.449,4.346,4.346,73.432,-50.834,-4.454
0.049,3.492,4.381,4.381,73.421,-50.811,-4.489
0.050,3.532,4.410,4.410,73.411,-50.794,-4.523
0.052,3.569,4.431,4.431,73.402,-50.781,-4.556
0.053,3.602,4.445,4.445,73.395,-50.775,-4.588
0.055,3.632,4.453,4.453,73.389,-50.775,-4.618
0.056,3.663,4.458,4.458,73.386,-50.781,-4.648
0.058,3.696,4.461,4.461,73.384,-50.794,-4.679
0.059,3.735,4.464,4.464,73.383,-50.814,-4.712
0.061,3.782,4.469,4.469,73.384,-50.842,-4.749
0.062,3.837,4.477,4.477,73.387,-50.878,-4.791
0.064,3.902,4.489,4.489,73.390,-50.921,-4.839
0.065,3.979,4.506,4.506,73.395,-50.973,-4.896
0.067,4.069,4.529,4.529,73.401,-51.033,-4.962
0.068,4.172,4.558,4.558,73.407,-51.103,-5.039
0.070,4.291,4.593,4.593,73.415,-51.181,-5.128
0.071,4.427,4.636,4.636,73.423,-51.270,-5.230
0.072,4.577,4.686,4.686,73.431,-51.366,-5.345
0.074,4.739,4.741,4.741,73.440,-51.469,-5.470
0.075,4.909,4.801,4.801,73.448,-51.577,-5.602
0.077,5.085,4.862,4.862,73.456,-51.687,-5.738
0.078,5.262,4.923,4.923,73.463,-51.797,-5.877
0.080,5.437,4.982,4.982,73.470,-51.905,-6.015
0.081,5.607,5.037,5.037,73.475,-52.009,-6.149
0.083,5.769,5.088,5.088,73.479,-52.107,-6.278
0.084,5.919,5.133,5.133,73.481,-52.197,-6.397
0.086,6.054,5.174,5.174,73.481,-52.277,-6.506
0.087,6.170,5.209,5.209,73.479,-52.345,-6.600
0.089,6.264,5.240,5.240,73.474,-52.398,-6.678
0.090,6.338,5.265,5.265,73.467,-52.438,-6.740
0.092,6.392,5.286,5.286,73.458,-52.465,-6.786
0.093,6.430,5.301,5.301,73.448,-52.481,-6.818
0.095,6.453,5.312,5.312,73.437,-52.488,-6.838
0.096,6.468,5.319,5.319,73.425,-52.486,-6.846
0.098,6.481,5.323,5.323,73.414,-52.479,-6.844
0.099,6.501,5.323,5.323,73.403,-52.466,-6.834
0.101,6.527,5.322,5.322,73.393,-52.450,-6.816
0.102,6.559,5.319,5.319,73.384,-52.432,-6.792
0.104,6.593,5.314,5.314,73.378,-52.413,-6.763
0.105,6.630,5.309,5.309,73.374,-52.395,-6.731
0.107,6.668,5.304,5.304,73.372,-52.380,-6.697
0.108,6.705,5.300,5.300,73.373,-52.367,-6.663
0.109,6.739,5.296,5.296,73.375,-52.357,-6.630
0.111,6.768,5.295,5.295,73.378,-52.351,-6.602
0.112,6.790,5.296,5.296,73.380,-52.347,-6.580
0.114,6.804,5.299,5.299,73.381,-52.347,-6.566
0.115,6.808,5.304,5.304,73.379,-52.350,-6.564
0.117,6.821,5.310,5.310,73.375,-52.357,-6.573
0.118,6.849,5.315,5.315,73.366,-52.367,-6.598
0.120,6.896,5.321,5.321,73.352,-52.381,-6.640
0.121,6.962,5.326,5.326,73.332,-52.399,-6.701
0.123,7.052,5.330,5.330,73.306,-52.421,-6.784
0.124,7.165,5.333,5.333,73.272,-52.448,-6.889
0.126,7.299,5.337,5.337,73.232,-52.477,-7.013
0.127,7.449,5.342,5.342,73.187,-52.509,-7.153
0.129,7.611,5.349,5.349,73.139,-52.542,-7.304
0.130,7.780,5.358,5.358,73.088,-52.575,-7.461
0.132,7.951,5.372,5.372,73.037,-52.608,-7.621
0.133,8.119,5.388,5.388,72.988,-52.639,-7.779
0.135,8.282,5.407,5.407,72.940,-52.667,-7.931
0.136,8.432,5.427,5.427,72.896,-52.693,-8.074
0.138,8.568,5.445,5.445,72.858,-52.713,-8.202
0.139,8.682,5.460,5.460,72.826,-52.728,-8.311
0.141,8.772,5.471,5.471,72.802,-52.737,-8.397
0.142,8.836,5.476,5.476,72.787,-52.739,-8.458
0.143,8.875,5.474,5.474,72.780,-52.736,-8.497
0.145,8.896,5.468,5.468,72.779,-52.729,-8.517
0.146,8.907,5.459,5.459,72.782,-52.720,-8.521
0.148,8.921,5.448,5.448,72.789,-52.710,-8.514
0.149,8.941,5.439,5.439,72.797,-52.701,-8.498
0.151,8.964,5.432,5.432,72.804,-52.694,-8.477
0.152,8.987,5.429,5.429,72.810,-52.692,-8.455
0.154,9.007,5.430,5.430,72.813,-52.696,-8.436
0.155,9.024,5.435,5.435,72.811,-52.707,-8.422
0.157,9.047,5.443,5.443,72.802,-52.727,-8.418
0.158,9.082,5.451,5.451,72.786,-52.758,-8.426
0.160,9.136,5.460,5.460,72.761,-52.799,-8.450
0.161,9.207,5.468,5.468,72.728,-52.851,-8.486
0.163,9.292,5.474,5.474,72.689,-52.910,-8.533
0.164,9.389,5.478,5.478,72.645,-52.975,-8.590
0.166,9.495,5.480,5.480,72.596,-53.044,-8.653
0.167,9.607,5.480,5.480,72.544,-53.116,-8.721
0.169,9.722,5.476,5.476,72.490,-53.188,-8.792
0.170,9.837,5.471,5.471,72.434,-53.259,-8.864
0.172,9.950,5.462,5.462,72.380,-53.327,-8.935
0.173,10.057,5.451,5.451,72.326,-53.390,-9.003
0.175,10.156,5.438,5.438,72.275,-53.447,-9.066
0.176,10.243,5.424,5.424,72.227,-53.496,-9.121
0.178,10.320,5.409,5.409,72.183,-53.536,-9.169
0.179,10.388,5.395,5.395,72.141,-53.570,-9.210
0.180,10.450,5.381,5.381,72.099,-53.599,-9.246
0.182,10.510,5.370,5.370,72.056,-53.626,-9.278
0.183,10.570,5.360,5.360,72.011,-53.652,-9.307
0.185,10.633,5.352,5.352,71.961,-53.680,-9.334
0.186,10.702,5.344,5.344,71.906,-53.712,-9.361
0.188,10.781,5.335,5.335,71.844,-53.750,-9.390
0.189,10.870,5.323,5.324,71.773,-53.796,-9.420
0.191,10.975,5.309,5.309,71.691,-53.851,-9.454
0.192,11.096,5.291,5.291,71.598,-53.919,-9.493
0.194,11.238,5.268,5.268,71.492,-54.001,-9.537
0.195,11.399,5.244,5.243,71.372,-54.096,-9.588
0.197,11.579,5.219,5.218,71.239,-54.205,-9.645
0.198,11.776,5.196,5.195,71.096,-54.324,-9.707
0.200,11.987,5.178,5.177,70.943,-54.452,-9.773
0.201,12.210,5.167,5.166,70.780,-54.588,-9.844
0.203,12.444,5.164,5.165,70.610,-54.731,-9.918
0.204,12.687,5.171,5.173,70.433,-54.878,-9.996
0.206,12.936,5.188,5.191,70.250,-55.027,-10.075
0.207,13.190,5.214,5.217,70.063,-55.179,-10.157
0.209,13.447,5.248,5.252,69.872,-55.330,-10.240
0.210,13.705,5.291,5.294,69.679,-55.479,-10.324
0.212,13.962,5.341,5.342,69.486,-55.625,-10.408
0.213,14.215,5.398,5.396,69.292,-55.766,-10.491
0.214,14.464,5.461,5.455,69.101,-55.903,-10.572
0.216,14.705,5.527,5.516,68.914,-56.033,-10.650
0.217,14.936,5.592,5.579,68.733,-56.157,-10.723
0.219,15.155,5.655,5.641,68.560,-56.274,-10.790
0.220,15.361,5.712,5.701,68.396,-56.383,-10.850
0.222,15.550,5.760,5.758,68.244,-56.484,-10.901
0.223,15.722,5.798,5.809,68.106,-56.576,-10.942
0.225,15.873,5.825,5.855,67.982,-56.657,-10.973
0.226,16.002,5.845,5.895,67.876,-56.728,-10.991
0.228,16.108,5.858,5.930,67.788,-56.788,-10.995
0.229,16.191,5.869,5.960,67.720,-56.836,-10.985
0.231,16.256,5.878,5.985,67.672,-56.873,-10.962
0.232,16.309,5.889,6.004,67.640,-56.901,-10.930
0.234,16.355,5.902,6.019,67.623,-56.921,-10.893
0.235,16.397,5.918,6.029,67.618,-56.936,-10.854
0.237,16.437,5.934,6.035,67.622,-56.946,-10.816
0.238,16.473,5.949,6.036,67.634,-56.953,-10.783
0.240,16.503,5.961,6.032,67.651,-56.960,-10.758
0.241,16.528,5.970,6.024,67.670,-56.966,-10.745
0.243,16.549,5.973,6.012,67.690,-56.975,-10.747
0.244,16.579,5.969,5.996,67.707,-56.988,-10.767
0.246,16.627,5.960,5.978,67.720,-57.006,-10.810
0.247,16.698,5.948,5.957,67.727,-57.031,-10.876
0.249,16.791,5.932,5.936,67.729,-57.060,-10.964
0.250,16.902,5.915,5.916,67.726,-57.093,-11.070
0.251,17.026,5.898,5.898,67.720,-57.128,-11.189
0.253,17.159,5.882,5.882,67.713,-57.162,-11.318
0.254,17.297,5.868,5.870,67.706,-57.194,-11.451
0.256,17.435,5.856,5.860,67.700,-57.222,-11.586
0.257,17.569,5.846,5.852,67.696,-57.245,-11.718
0.259,17.695,5.837,5.846,67.696,-57.259,-11.844
0.260,17.809,5.829,5.839,67.702,-57.264,-11.958
0.262,17.909,5.822,5.832,67.714,-57.258,-12.057
0.263,17.994,5.816,5.824,67.734,-57.239,-12.137
0.265,18.067,5.810,5.814,67.762,-57.206,-12.195
0.266,18.133,5.804,5.804,67.795,-57.164,-12.235
0.268,18.194,5.798,5.794,67.830,-57.119,-12.259
0.269,18.249,5.791,5.785,67.862,-57.077,-12.270
0.271,18.292,5.784,5.778,67.887,-57.042,-12.273
0.272,18.319,5.775,5.773,67.903,-57.021,-12.271
0.274,18.324,5.766,5.772,67.905,-57.018,-12.268
0.275,18.351,5.753,5.771,67.890,-57.040,-12.266
0.277,18.414,5.733,5.766,67.853,-57.093,-12.269
0.278,18.522,5.702,5.751,67.792,-57.180,-12.280
0.280,18.681,5.659,5.723,67.702,-57.309,-12.304
0.281,18.898,5.597,5.676,67.579,-57.484,-12.343
0.283,19.176,5.516,5.604,67.424,-57.707,-12.399
0.284,19.503,5.411,5.505,67.241,-57.970,-12.469
0.286,19.870,5.287,5.382,67.036,-58.263,-12.550
0.287,20.265,5.151,5.243,66.815,-58.578,-12.640
0.288,20.677,5.008,5.094,66.584,-58.906,-12.734
0.290,21.095,4.866,4.943,66.349,-59.237,-12.830
0.291,21.507,4.730,4.798,66.116,-59.564,-12.926
0.293,21.903,4.609,4.666,65.891,-59.877,-13.017
0.294,22.271,4.506,4.553,65.680,-60.166,-13.101
0.296,22.600,4.422,4.459,65.489,-60.424,-13.174
0.297,22.880,4.356,4.383,65.323,-60.641,-13.234
0.299,23.099,4.307,4.325,65.189,-60.808,-13.278
0.300,23.254,4.273,4.283,65.089,-60.924,-13.305
0.302,23.356,4.253,4.257,65.018,-60.996,-13.318
0.303,23.413,4.247,4.246,64.973,-61.032,-13.320
0.305,23.438,4.251,4.248,64.951,-61.040,-13.315
0.306,23.454,4.263,4.259,64.946,-61.029,-13.305
0.308,23.481,4.280,4.275,64.956,-61.006,-13.294
0.309,23.515,4.297,4.293,64.976,-60.980,-13.285
0.311,23.550,4.311,4.309,65.003,-60.958,-13.281
0.312,23.580,4.319,4.319,65.032,-60.949,-13.285
0.314,23.614,4.318,4.318,65.060,-60.962,-13.301
0.315,23.670,4.305,4.306,65.082,-61.003,-13.331
0.317,23.763,4.283,4.285,65.095,-61.082,-13.379
0.318,23.897,4.256,4.257,65.098,-61.198,-13.445
0.320,24.066,4.225,4.226,65.091,-61.348,-13.523
0.321,24.264,4.194,4.195,65.075,-61.525,-13.611
0.322,24.486,4.165,4.165,65.052,-61.724,-13.705
0.324,24.724,4.141,4.141,65.021,-61.940,-13.800
0.325,24.973,4.124,4.123,64.986,-62.168,-13.894
0.327,25.226,4.113,4.113,64.945,-62.402,-13.981
0.328,25.477,4.111,4.110,64.901,-62.637,-14.058
0.330,25.721,4.117,4.116,64.854,-62.868,-14.121
0.331,25.951,4.131,4.131,64.805,-63.089,-14.167
0.333,26.164,4.156,4.156,64.755,-63.294,-14.190
0.334,26.356,4.191,4.191,64.706,-63.480,-14.189
0.336,26.530,4.234,4.234,64.656,-63.645,-14.165
0.337,26.690,4.282,4.284,64.607,-63.791,-14.122
0.339,26.840,4.333,4.335,64.556,-63.920,-14.066
0.340,26.981,4.384,4.386,64.504,-64.034,-14.001
0.342,27.114,4.432,4.433,64.450,-64.136,-13.934
0.343,27.240,4.473,4.473,64.394,-64.227,-13.869
0.345,27.357,4.505,4.504,64.335,-64.310,-13.811
0.346,27.465,4.527,4.523,64.272,-64.386,-13.766
0.348,27.567,4.536,4.531,64.206,-64.458,-13.738
0.349,27.666,4.533,4.527,64.135,-64.528,-13.733
0.351,27.771,4.515,4.509,64.060,-64.597,-13.755
0.352,27.892,4.481,4.477,63.979,-64.668,-13.810
0.354,28.034,4.431,4.431,63.893,-64.741,-13.897
0.355,28.202,4.363,4.369,63.801,-64.816,-14.015
0.357,28.395,4.282,4.296,63.703,-64.892,-14.164
0.358,28.614,4.192,4.215,63.599,-64.970,-14.340
0.359,28.858,4.098,4.130,63.490,-65.050,-14.543
0.361,29.127,4.004,4.043,63.374,-65.130,-14.771
0.362,29.418,3.915,3.960,63.252,-65.212,-15.024
0.364,29.732,3.837,3.883,63.124,-65.294,-15.298
0.365,30.067,3.772,3.816,62.990,-65.377,-15.594
0.367,30.422,3.723,3.763,62.849,-65.461,-15.908
0.368,30.796,3.695,3.728,62.702,-65.545,-16.241
0.370,31.186,3.688,3.712,62.548,-65.629,-16.590
0.371,31.588,3.706,3.721,62.390,-65.712,-16.950
0.373,31.996,3.752,3.757,62.230,-65.794,-17.316
0.374,32.405,3.827,3.824,62.069,-65.873,-17.684
0.376,32.807,3.931,3.921,61.912,-65.950,-18.046
0.377,33.199,4.056,4.041,61.759,-66.022,-18.399
0.379,33.573,4.193,4.175,61.613,-66.090,-18.738
0.380,33.925,4.334,4.316,61.477,-66.152,-19.056
0.382,34.247,4.471,4.457,61.353,-66.208,-19.348
0.383,34.535,4.595,4.589,61.243,-66.257,-19.610
0.385,34.783,4.698,4.705,61.149,-66.297,-19.836
0.386,34.985,4.778,4.802,61.075,-66.329,-20.020
0.388,35.137,4.838,4.880,61.020,-66.352,-20.160
0.389,35.244,4.879,4.940,60.983,-66.367,-20.260
0.391,35.313,4.906,4.983,60.960,-66.374,-20.324
0.392,35.349,4.920,5.010,60.950,-66.376,-20.358
0.393,35.358,4.925,5.020,60.948,-66.374,-20.367
0.395,35.371,4.924,5.016,60.952,-66.368,-20.357
0.396,35.398,4.917,5.001,60.959,-66.361,-20.331
0.398,35.435,4.909,4.977,60.965,-66.353,-20.296
0.399,35.475,4.899,4.949,60.968,-66.346,-20.257
0.401,35.514,4.890,4.922,60.966,-66.341,-20.218
0.402,35.549,4.883,4.898,60.954,-66.339,-20.185
0.404,35.582,4.881,4.883,60.929,-66.341,-20.163
0.405,35.621,4.885,4.879,60.892,-66.349,-20.156
0.407,35.671,4.895,4.885,60.843,-66.360,-20.161
0.408,35.733,4.908,4.899,60.785,-66.372,-20.179
0.410,35.805,4.924,4.919,60.720,-66.385,-20.207
0.411,35.884,4.942,4.942,60.651,-66.396,-20.244
0.413,35.968,4.960,4.966,60.581,-66.404,-20.289
0.414,36.054,4.976,4.988,60.511,-66.407,-20.340
0.416,36.141,4.991,5.006,60.445,-66.403,-20.395
0.417,36.226,5.003,5.020,60.384,-66.391,-20.455
0.419,36.310,5.012,5.030,60.332,-66.369,-20.516
0.420,36.392,5.018,5.034,60.290,-66.335,-20.577
0.422,36.474,5.022,5.034,60.261,-66.288,-20.638
0.423,36.560,5.022,5.028,60.245,-66.228,-20.698
0.425,36.652,5.019,5.017,60.238,-66.159,-20.759
0.426,36.750,5.013,5.001,60.236,-66.084,-20.821
0.428,36.852,5.007,4.986,60.235,-66.006,-20.888
0.429,36.957,5.002,4.974,60.231,-65.931,-20.961
0.430,37.065,5.001,4.970,60.220,-65.860,-21.041
0.432,37.176,5.006,4.980,60.198,-65.798,-21.130
0.433,37.294,5.020,5.007,60.160,-65.748,-21.230
0.435,37.424,5.044,5.055,60.104,-65.714,-21.343
0.436,37.575,5.081,5.125,60.024,-65.699,-21.470
0.438,37.753,5.128,5.214,59.917,-65.708,-21.612
0.439,37.968,5.187,5.317,59.779,-65.743,-21.773
0.441,38.220,5.255,5.431,59.611,-65.804,-21.950
0.442,38.502,5.333,5.549,59.418,-65.888,-22.139
0.444,38.809,5.420,5.669,59.207,-65.989,-22.336
0.445,39.132,5.515,5.786,58.983,-66.105,-22.538
0.447,39.463,5.616,5.897,58.751,-66.229,-22.739
0.448,39.795,5.719,5.999,58.518,-66.359,-22.936
0.450,40.119,5.821,6.090,58.289,-66.490,-23.125
0.451,40.427,5.917,6.167,58.070,-66.618,-23.302
0.453,40.712,6.004,6.228,57.868,-66.738,-23.462
0.454,40.965,6.077,6.270,57.686,-66.846,-23.601
0.456,41.178,6.134,6.292,57.533,-66.938,-23.715
0.457,41.343,6.175,6.295,57.412,-67.011,-23.801
0.459,41.461,6.203,6.286,57.323,-67.064,-23.859
0.460,41.540,6.219,6.269,57.263,-67.100,-23.893
0.462,41.584,6.228,6.251,57.227,-67.123,-23.908
0.463,41.604,6.231,6.236,57.212,-67.135,-23.905
0.464,41.619,6.230,6.230,57.212,-67.140,-23.891
0.466,41.645,6.229,6.237,57.225,-67.141,-23.868
0.467,41.679,6.228,6.256,57.245,-67.141,-23.841
0.469,41.716,6.227,6.283,57.269,-67.142,-23.813
0.470,41.750,6.226,6.315,57.292,-67.148,-23.789
0.472,41.780,6.227,6.348,57.311,-67.163,-23.772
0.473,41.808,6.228,6.380,57.321,-67.188,-23.765
0.475,41.848,6.230,6.407,57.319,-67.228,-23.774
0.476,41.907,6.233,6.427,57.305,-67.280,-23.796
0.478,41.985,6.238,6.439,57.279,-67.345,-23.831
0.479,42.078,6.244,6.444,57.245,-67.419,-23.876
0.481,42.185,6.250,6.443,57.203,-67.502,-23.928
0.482,42.302,6.257,6.437,57.155,-67.591,-23.987
0.484,42.426,6.264,6.427,57.102,-67.684,-24.050
0.485,42.555,6.271,6.413,57.047,-67.781,-24.115
0.487,42.685,6.278,6.397,56.990,-67.879,-24.179
0.488,42.814,6.285,6.379,56.934,-67.976,-24.242
0.490,42.937,6.292,6.361,56.880,-68.071,-24.300
0.491,43.054,6.300,6.345,56.830,-68.162,-24.352
0.493,43.160,6.307,6.331,56.784,-68.247,-24.396
0.494,43.256,6.315,6.322,56.744,-68.326,-24.432
0.496,43.341,6.322,6.318,56.709,-68.398,-24.462
0.497,43.416,6.330,6.321,56.680,-68.463,-24.485
0.499,43.480,6.338,6.327,56.656,-68.520,-24.504
0.500,43.534,6.345,6.337,56.637,-68.568,-24.517
0.501,43.577,6.352,6.347,56.624,-68.608,-24.527
0.503,43.609,6.357,6.357,56.616,-68.638,-24.534
0.504,43.630,6.360,6.366,56.614,-68.659,-24.539
0.506,43.642,6.362,6.371,56.617,-68.669,-24.543
0.507,43.651,6.361,6.372,56.626,-68.668,-24.547
0.509,43.670,6.360,6.372,56.640,-68.656,-24.550
0.510,43.700,6.359,6.369,56.660,-68.633,-24.555
0.512,43.739,6.359,6.367,56.682,-68.603,-24.560
0.513,43.780,6.361,6.365,56.706,-68.569,-24.566
0.515,43.821,6.365,6.366,56.727,-68.535,-24.571
0.516,43.855,6.372,6.368,56.745,-68.506,-24.576
0.518,43.880,6.380,6.373,56.757,-68.485,-24.580
0.519,43.890,6.388,6.378,56.760,-68.476,-24.583
0.521,43.901,6.392,6.381,56.752,-68.483,-24.585
0.522,43.935,6.391,6.380,56.730,-68.510,-24.584
0.524,43.999,6.382,6.375,56.694,-68.562,-24.581
0.525,44.095,6.363,6.362,56.639,-68.641,-24.576
0.527,44.230,6.331,6.341,56.564,-68.753,-24.567
0.528,44.403,6.288,6.314,56.468,-68.897,-24.555
0.530,44.609,6.239,6.282,56.356,-69.069,-24.540
0.531,44.840,6.185,6.248,56.231,-69.262,-24.524
0.533,45.087,6.129,6.214,56.098,-69.470,-24.506
0.534,45.345,6.075,6.184,55.961,-69.687,-24.486
0.536,45.604,6.025,6.158,55.825,-69.907,-24.467
0.537,45.857,5.982,6.139,55.694,-70.123,-24.447
0.538,46.098,5.946,6.125,55.573,-70.330,-24.429
0.540,46.317,5.917,6.115,55.466,-70.520,-24.412
0.541,46.508,5.896,6.106,55.377,-70.688,-24.396
0.543,46.663,5.882,6.099,55.310,-70.828,-24.384
0.544,46.776,5.876,6.089,55.270,-70.934,-24.374
0.546,46.847,5.878,6.077,55.258,-71.003,-24.368
0.547,46.889,5.887,6.061,55.267,-71.044,-24.366
0.549,46.919,5.900,6.042,55.291,-71.061,-24.369
0.550,46.953,5.915,6.021,55.324,-71.063,-24.378
0.552,46.992,5.928,5.999,55.360,-71.056,-24.392
0.553,47.032,5.937,5.977,55.392,-71.046,-24.413
0.555,47.068,5.939,5.955,55.414,-71.041,-24.441
0.556,47.104,5.931,5.934,55.420,-71.048,-24.477
0.558,47.157,5.912,5.916,55.404,-71.073,-24.521
0.559,47.243,5.885,5.898,55.359,-71.122,-24.573
0.561,47.373,5.851,5.882,55.280,-71.204,-24.636
0.562,47.558,5.813,5.866,55.159,-71.324,-24.708
0.564,47.798,5.773,5.849,54.998,-71.483,-24.789
0.565,48.084,5.732,5.831,54.803,-71.674,-24.877
0.567,48.407,5.693,5.812,54.582,-71.889,-24.971
0.568,48.756,5.657,5.791,54.341,-72.123,-25.068
0.570,49.121,5.621,5.766,54.089,-72.367,-25.166
0.571,49.493,5.586,5.737,53.831,-72.616,-25.263
0.572,49.860,5.550,5.703,53.575,-72.863,-25.357
0.574,50.214,5.514,5.663,53.328,-73.099,-25.447
0.575,50.543,5.475,5.616,53.098,-73.320,-25.529
0.577,50.838,5.433,5.561,52.891,-73.517,-25.602
0.578,51.088,5.391,5.501,52.715,-73.683,-25.665
0.580,51.285,5.352,5.441,52.576,-73.813,-25.714
0.581,51.427,5.318,5.384,52.475,-73.907,-25.750
0.583,51.521,5.292,5.335,52.407,-73.967,-25.775
0.584,51.573,5.278,5.299,52.368,-73.999,-25.789
0.586,51.590,5.279,5.280,52.355,-74.008,-25.794
0.587,51.604,5.297,5.281,52.362,-73.997,-25.791
0.589,51.640,5.327,5.299,52.385,-73.970,-25.782
0.590,51.694,5.366,5.330,52.421,-73.933,-25.768
0.592,51.758,5.408,5.370,52.465,-73.889,-25.749
0.593,51.828,5.448,5.416,52.512,-73.843,-25.728
0.595,51.896,5.481,5.462,52.559,-73.799,-25.705
0.596,51.956,5.502,5.505,52.601,-73.762,-25.683
0.598,52.004,5.508,5.542,52.634,-73.735,-25.661
0.599,52.038,5.502,5.572,52.656,-73.719,-25.641
0.601,52.059,5.488,5.594,52.665,-73.713,-25.623
0.602,52.077,5.468,5.608,52.661,-73.716,-25.605
0.604,52.104,5.447,5.615,52.642,-73.726,-25.590
0.605,52.146,5.427,5.612,52.606,-73.743,-25.575
0.607,52.205,5.413,5.601,52.552,-73.765,-25.562
0.608,52.283,5.406,5.581,52.480,-73.791,-25.551
0.609,52.381,5.404,5.554,52.387,-73.820,-25.541
0.611,52.501,5.404,5.523,52.272,-73.851,-25.532
0.612,52.642,5.406,5.489,52.134,-73.882,-25.524
0.614,52.808,5.405,5.454,51.972,-73.914,-25.517
0.615,52.997,5.401,5.421,51.784,-73.943,-25.512
0.617,53.209,5.391,5.390,51.575,-73.972,-25.508
0.618,53.437,5.375,5.364,51.349,-73.999,-25.505
0.620,53.678,5.355,5.341,51.109,-74.025,-25.503
