"T","Distance","Radius","FreeRadius","X","Y","Z"
0.000,0.000,2.384,2.384,74.773,-51.060,-2.344
0.001,0.226,2.530,2.530,74.655,-51.103,-2.532
0.003,0.451,2.675,2.675,74.538,-51.145,-2.719
0.004,0.671,2.818,2.818,74.422,-51.185,-2.902
0.005,0.886,2.959,2.959,74.309,-51.222,-3.081
0.007,1.094,3.095,3.095,74.198,-51.256,-3.254
0.008,1.292,3.227,3.227,74.092,-51.285,-3.419
0.009,1.480,3.354,3.354,73.991,-51.308,-3.575
0.011,1.654,3.474,3.474,73.895,-51.325,-3.720
0.012,1.815,3.586,3.586,73.805,-51.335,-3.853
0.013,1.959,3.690,3.690,73.723,-51.336,-3.971
0.015,2.087,3.786,3.786,73.648,-51.328,-4.075
0.016,2.197,3.871,3.871,73.582,-51.310,-4.161
0.017,2.290,3.945,3.945,73.526,-51.281,-4.229
0.018,2.369,4.008,4.008,73.480,-51.241,-4.278
0.020,2.439,4.059,4.059,73.443,-51.191,-4.310
0.021,2.504,4.097,4.097,73.415,-51.134,-4.329
0.022,2.569,4.123,4.123,73.395,-51.074,-4.337
0.024,2.631,4.140,4.140,73.381,-51.013,-4.339
0.025,2.691,4.151,4.151,73.374,-50.953,-4.339
0.026,2.746,4.159,4.159,73.372,-50.898,-4.339
0.028,2.794,4.166,4.166,73.375,-50.851,-4.343
0.029,2.833,4.175,4.175,73.381,-50.814,-4.354
0.030,2.867,4.190,4.190,73.389,-50.790,-4.377
0.032,2.906,4.211,4.211,73.400,-50.782,-4.414
0.033,2.964,4.241,4.241,73.411,-50.793,-4.470
0.034,3.048,4.277,4.277,73.422,-50.826,-4.547
0.036,3.164,4.321,4.321,73.433,-50.882,-4.648
0.037,3.311,4.372,4.372,73.443,-50.960,-4.772
0.038,3.484,4.430,4.430,73.452,-51.057,-4.914
0.040,3.678,4.495,4.495,73.460,-51.170,-5.073
0.041,3.890,4.567,4.567,73.467,-51.295,-5.243
0.042,4.113,4.645,4.645,73.474,-51.429,-5.421
0.044,4.344,4.727,4.727,73.480,-51.570,-5.604
0.045,4.578,4.812,4.812,73.485,-51.713,-5.789
0.046,4.810,4.897,4.897,73.490,-51.856,-5.972
0.047,5.035,4.980,4.980,73.494,-51.996,-6.149
0.049,5.249,5.061,5.061,73.498,-52.129,-6.316
0.050,5.447,5.136,5.136,73.501,-52.252,-6.471
0.051,5.624,5.204,5.204,73.503,-52.362,-6.610
0.053,5.776,5.265,5.265,73.506,-52.456,-6.729
0.054,5.903,5.319,5.319,73.508,-52.535,-6.829
0.055,6.007,5.365,5.365,73.509,-52.599,-6.911
0.057,6.090,5.404,5.404,73.511,-52.650,-6.977
0.058,6.155,5.437,5.437,73.512,-52.689,-7.027
0.059,6.202,5.462,5.462,73.513,-52.718,-7.065
0.061,6.234,5.481,5.481,73.514,-52.738,-7.090
0.062,6.254,5.494,5.494,73.516,-52.751,-7.105
0.063,6.263,5.502,5.502,73.517,-52.758,-7.111
0.065,6.267,5.505,5.505,73.519,-52.760,-7.109
0.066,6.275,5.506,5.506,73.522,-52.759,-7.101
0.067,6.288,5.504,5.504,73.524,-52.756,-7.089
0.069,6.304,5.503,5.503,73.527,-52.753,-7.073
0.070,6.322,5.501,5.501,73.531,-52.750,-7.056
0.071,6.340,5.502,5.502,73.535,-52.749,-7.038
0.073,6.358,5.505,5.505,73.539,-52.749,-7.021
0.074,6.375,5.510,5.510,73.543,-52.750,-7.005
0.075,6.389,5.515,5.515,73.547,-52.751,-6.991
0.077,6.400,5.520,5.520,73.550,-52.753,-6.980
0.078,6.407,5.524,5.524,73.553,-52.755,-6.974
0.079,6.411,5.527,5.527,73.554,-52.758,-6.973
0.080,6.416,5.527,5.527,73.554,-52.761,-6.978
0.082,6.428,5.524,5.524,73.553,-52.763,-6.990
0.083,6.449,5.519,5.519,73.550,-52.766,-7.010
0.084,6.478,5.512,5.512,73.545,-52.768,-7.038
0.086,6.518,5.504,5.504,73.537,-52.769,-7.077
0.087,6.568,5.496,5.496,73.527,-52.770,-7.127
0.088,6.629,5.488,5.488,73.515,-52.771,-7.186
0.090,6.699,5.483,5.483,73.500,-52.772,-7.255
0.091,6.777,5.480,5.480,73.482,-52.774,-7.330
0.092,6.860,5.480,5.480,73.462,-52.777,-7.411
0.094,6.948,5.482,5.482,73.440,-52.783,-7.496
0.095,7.040,5.487,5.487,73.415,-52.791,-7.584
0.096,7.134,5.494,5.494,73.388,-52.804,-7.673
0.098,7.228,5.501,5.501,73.358,-52.820,-7.761
0.099,7.323,5.509,5.509,73.326,-52.841,-7.848
0.100,7.417,5.517,5.517,73.291,-52.868,-7.931
0.102,7.509,5.524,5.524,73.254,-52.901,-8.009
0.103,7.600,5.529,5.529,73.215,-52.941,-8.080
0.104,7.689,5.534,5.534,73.174,-52.988,-8.144
0.106,7.778,5.536,5.536,73.130,-53.042,-8.199
0.107,7.867,5.536,5.536,73.085,-53.101,-8.248
0.108,7.957,5.534,5.534,73.038,-53.165,-8.291
0.109,8.047,5.529,5.529,72.990,-53.230,-8.330
0.111,8.137,5.521,5.521,72.942,-53.297,-8.366
0.112,8.226,5.509,5.509,72.893,-53.364,-8.399
0.113,8.313,5.494,5.494,72.844,-53.428,-8.432
0.115,8.398,5.478,5.478,72.795,-53.489,-8.464
0.116,8.480,5.461,5.461,72.746,-53.545,-8.498
0.117,8.558,5.444,5.444,72.699,-53.595,-8.535
0.119,8.632,5.429,5.429,72.653,-53.637,-8.575
0.120,8.704,5.416,5.416,72.608,-53.670,-8.620
0.121,8.774,5.406,5.406,72.565,-53.693,-8.671
0.123,8.846,5.401,5.401,72.523,-53.705,-8.729
0.124,8.921,5.399,5.398,72.483,-53.709,-8.791
0.125,9.000,5.399,5.399,72.441,-53.707,-8.859
0.127,9.083,5.400,5.400,72.399,-53.701,-8.930
0.128,9.170,5.402,5.402,72.354,-53.694,-9.004
0.129,9.261,5.403,5.403,72.306,-53.687,-9.081
0.131,9.355,5.403,5.403,72.254,-53.682,-9.159
0.132,9.452,5.401,5.401,72.196,-53.682,-9.237
0.133,9.553,5.396,5.396,72.133,-53.689,-9.316
0.135,9.659,5.388,5.388,72.062,-53.705,-9.393
0.136,9.772,5.378,5.378,71.984,-53.733,-9.469
0.137,9.893,5.366,5.366,71.897,-53.773,-9.542
0.139,10.025,5.352,5.352,71.800,-53.829,-9.612
0.140,10.170,5.336,5.336,71.692,-53.901,-9.679
0.141,10.328,5.319,5.319,71.575,-53.987,-9.742
0.142,10.500,5.301,5.301,71.449,-54.086,-9.803
0.144,10.684,5.283,5.282,71.315,-54.197,-9.861
0.145,10.879,5.265,5.264,71.172,-54.318,-9.917
0.146,11.085,5.250,5.249,71.023,-54.448,-9.972
0.148,11.300,5.239,5.237,70.866,-54.585,-10.025
0.149,11.523,5.232,5.231,70.703,-54.728,-10.078
0.150,11.753,5.232,5.231,70.534,-54.875,-10.130
0.152,11.989,5.238,5.238,70.359,-55.025,-10.182
0.153,12.229,5.252,5.254,70.180,-55.177,-10.235
0.154,12.473,5.275,5.278,69.997,-55.329,-10.289
0.156,12.719,5.305,5.309,69.811,-55.479,-10.344
0.157,12.965,5.342,5.348,69.621,-55.627,-10.400
0.158,13.211,5.386,5.392,69.431,-55.771,-10.457
0.160,13.454,5.437,5.442,69.241,-55.911,-10.514
0.161,13.692,5.495,5.497,69.053,-56.047,-10.570
0.162,13.924,5.558,5.556,68.869,-56.177,-10.625
0.164,14.148,5.626,5.618,68.691,-56.301,-10.679
0.165,14.362,5.696,5.682,68.520,-56.419,-10.731
0.166,14.564,5.765,5.745,68.357,-56.529,-10.780
0.168,14.753,5.829,5.806,68.205,-56.630,-10.826
0.169,14.926,5.885,5.864,68.065,-56.723,-10.868
0.170,15.082,5.931,5.916,67.938,-56.806,-10.905
0.172,15.219,5.964,5.962,67.826,-56.878,-10.937
0.173,15.335,5.981,5.998,67.732,-56.940,-10.964
0.174,15.430,5.984,6.026,67.655,-56.990,-10.986
0.175,15.504,5.977,6.047,67.594,-57.029,-11.002
0.177,15.559,5.962,6.061,67.549,-57.058,-11.016
0.178,15.597,5.944,6.068,67.519,-57.077,-11.027
0.179,15.619,5.925,6.071,67.502,-57.087,-11.038
0.181,15.630,5.909,6.070,67.497,-57.087,-11.048
0.182,15.646,5.900,6.065,67.503,-57.079,-11.060
0.183,15.673,5.899,6.057,67.520,-57.063,-11.074
0.185,15.712,5.905,6.047,67.546,-57.040,-11.092
0.186,15.763,5.917,6.037,67.579,-57.009,-11.114
0.187,15.825,5.934,6.026,67.620,-56.972,-11.142
0.189,15.898,5.952,6.016,67.667,-56.928,-11.177
0.190,15.981,5.972,6.008,67.718,-56.879,-11.221
0.191,16.073,5.991,6.001,67.773,-56.826,-11.273
0.193,16.171,6.007,5.998,67.829,-56.772,-11.332
0.194,16.271,6.020,5.997,67.882,-56.720,-11.399
0.195,16.370,6.028,5.997,67.930,-56.673,-11.472
0.197,16.466,6.029,5.996,67.970,-56.635,-11.549
0.198,16.556,6.023,5.992,68.000,-56.610,-11.631
0.199,16.643,6.009,5.984,68.016,-56.601,-11.716
0.201,16.731,5.984,5.969,68.016,-56.610,-11.804
0.202,16.827,5.949,5.947,67.997,-56.642,-11.893
0.203,16.941,5.901,5.915,67.956,-56.699,-11.982
0.204,17.081,5.842,5.874,67.891,-56.786,-12.070
0.206,17.256,5.774,5.824,67.798,-56.905,-12.158
0.207,17.471,5.696,5.767,67.675,-57.059,-12.243
0.208,17.730,5.612,5.703,67.520,-57.251,-12.325
0.210,18.030,5.521,5.632,67.339,-57.476,-12.404
0.211,18.365,5.425,5.556,67.136,-57.731,-12.482
0.212,18.729,5.326,5.476,66.916,-58.010,-12.559
0.214,19.116,5.225,5.391,66.683,-58.309,-12.634
0.215,19.519,5.122,5.301,66.442,-58.625,-12.710
0.216,19.934,5.017,5.207,66.199,-58.952,-12.786
0.218,20.354,4.911,5.108,65.957,-59.286,-12.863
0.219,20.772,4.805,5.004,65.723,-59.624,-12.942
0.220,21.183,4.699,4.895,65.500,-59.960,-13.023
0.222,21.582,4.592,4.780,65.294,-60.290,-13.107
0.223,21.961,4.487,4.659,65.108,-60.610,-13.194
0.224,22.318,4.384,4.535,64.949,-60.916,-13.284
0.226,22.647,4.287,4.412,64.820,-61.203,-13.379
0.227,22.952,4.198,4.296,64.717,-61.473,-13.476
0.228,23.234,4.121,4.191,64.639,-61.727,-13.574
0.230,23.496,4.059,4.102,64.582,-61.963,-13.670
0.231,23.739,4.014,4.034,64.544,-62.184,-13.763
0.232,23.965,3.990,3.992,64.521,-62.390,-13.852
0.234,24.173,3.989,3.978,64.511,-62.582,-13.933
0.235,24.365,4.008,3.991,64.510,-62.760,-14.006
0.236,24.541,4.043,4.024,64.517,-62.925,-14.068
0.237,24.702,4.090,4.073,64.527,-63.077,-14.118
0.239,24.848,4.145,4.132,64.539,-63.218,-14.153
0.240,24.979,4.204,4.196,64.548,-63.348,-14.173
0.241,25.099,4.263,4.260,64.553,-63.467,-14.174
0.243,25.209,4.318,4.319,64.551,-63.576,-14.157
0.244,25.316,4.365,4.368,64.541,-63.677,-14.125
0.245,25.420,4.406,4.409,64.524,-63.770,-14.080
0.247,25.524,4.440,4.442,64.500,-63.856,-14.027
0.248,25.627,4.467,4.468,64.469,-63.937,-13.970
0.249,25.730,4.489,4.488,64.432,-64.012,-13.913
0.251,25.830,4.504,4.503,64.387,-64.084,-13.858
0.252,25.928,4.514,4.513,64.337,-64.153,-13.811
0.253,26.024,4.518,4.520,64.280,-64.220,-13.774
0.255,26.118,4.517,4.522,64.217,-64.287,-13.752
0.256,26.214,4.509,4.518,64.147,-64.353,-13.748
0.257,26.316,4.494,4.508,64.073,-64.421,-13.767
0.259,26.432,4.471,4.489,63.992,-64.491,-13.811
0.260,26.566,4.438,4.461,63.906,-64.563,-13.885
0.261,26.723,4.396,4.421,63.815,-64.639,-13.986
0.263,26.901,4.342,4.369,63.719,-64.717,-14.115
0.264,27.102,4.278,4.304,63.617,-64.797,-14.268
0.265,27.324,4.205,4.229,63.512,-64.880,-14.445
0.266,27.566,4.128,4.149,63.401,-64.963,-14.644
0.268,27.827,4.051,4.067,63.286,-65.047,-14.863
0.269,28.107,3.976,3.987,63.168,-65.133,-15.101
0.270,28.402,3.909,3.915,63.045,-65.218,-15.356
0.272,28.712,3.852,3.854,62.918,-65.304,-15.626
0.273,29.036,3.809,3.809,62.788,-65.389,-15.910
0.274,29.372,3.784,3.782,62.655,-65.473,-16.206
0.276,29.718,3.776,3.773,62.518,-65.557,-16.513
0.277,30.072,3.786,3.783,62.378,-65.639,-16.828
0.278,30.432,3.814,3.811,62.237,-65.719,-17.149
0.280,30.793,3.859,3.858,62.096,-65.797,-17.472
0.281,31.153,3.922,3.922,61.955,-65.871,-17.795
0.282,31.507,4.004,4.004,61.817,-65.943,-18.113
0.284,31.851,4.103,4.103,61.684,-66.010,-18.423
0.285,32.183,4.217,4.217,61.555,-66.074,-18.723
0.286,32.499,4.341,4.339,61.433,-66.132,-19.008
0.288,32.794,4.470,4.467,61.320,-66.185,-19.275
0.289,33.065,4.596,4.593,61.216,-66.232,-19.521
0.290,33.309,4.717,4.713,61.124,-66.273,-19.743
0.292,33.522,4.825,4.822,61.043,-66.307,-19.937
0.293,33.700,4.916,4.915,60.977,-66.334,-20.100
0.294,33.840,4.985,4.988,60.926,-66.353,-20.229
0.296,33.944,5.033,5.042,60.889,-66.365,-20.326
0.297,34.017,5.064,5.078,60.865,-66.371,-20.394
0.298,34.061,5.079,5.099,60.851,-66.372,-20.436
0.299,34.081,5.083,5.107,60.847,-66.369,-20.456
0.301,34.088,5.076,5.105,60.851,-66.363,-20.456
0.302,34.108,5.063,5.094,60.861,-66.355,-20.441
0.303,34.141,5.045,5.077,60.875,-66.346,-20.413
0.305,34.183,5.026,5.056,60.892,-66.336,-20.376
0.306,34.230,5.005,5.033,60.910,-66.328,-20.333
0.307,34.280,4.985,5.008,60.928,-66.322,-20.287
0.309,34.327,4.967,4.985,60.944,-66.320,-20.242
0.310,34.370,4.952,4.964,60.956,-66.321,-20.201
0.311,34.406,4.942,4.948,60.963,-66.327,-20.167
0.313,34.434,4.936,4.938,60.965,-66.337,-20.140
0.314,34.458,4.938,4.936,60.964,-66.350,-20.121
0.315,34.477,4.945,4.940,60.959,-66.364,-20.109
0.317,34.494,4.956,4.950,60.952,-66.378,-20.103
0.318,34.509,4.968,4.962,60.944,-66.390,-20.103
0.319,34.523,4.979,4.973,60.935,-66.400,-20.109
0.321,34.537,4.987,4.983,60.928,-66.404,-20.121
0.322,34.554,4.990,4.988,60.922,-66.403,-20.137
0.323,34.577,4.986,4.986,60.919,-66.394,-20.158
0.325,34.608,4.972,4.975,60.919,-66.376,-20.183
0.326,34.648,4.952,4.957,60.924,-66.348,-20.211
0.327,34.701,4.927,4.935,60.935,-66.308,-20.244
0.328,34.767,4.900,4.910,60.951,-66.255,-20.279
0.330,34.845,4.875,4.885,60.973,-66.190,-20.317
0.331,34.933,4.854,4.862,60.995,-66.118,-20.361
0.332,35.028,4.839,4.843,61.016,-66.040,-20.411
0.334,35.127,4.834,4.831,61.032,-65.961,-20.468
0.335,35.229,4.839,4.828,61.039,-65.883,-20.534
0.336,35.334,4.853,4.832,61.034,-65.810,-20.610
0.338,35.444,4.875,4.846,61.014,-65.746,-20.697
0.339,35.562,4.902,4.869,60.976,-65.693,-20.796
0.340,35.695,4.933,4.901,60.917,-65.655,-20.909
0.342,35.849,4.967,4.942,60.833,-65.635,-21.036
0.343,36.031,5.002,4.994,60.721,-65.637,-21.180
0.344,36.249,5.036,5.056,60.578,-65.663,-21.341
0.346,36.506,5.071,5.127,60.401,-65.718,-21.520
0.347,36.804,5.109,5.207,60.192,-65.799,-21.716
0.348,37.136,5.153,5.295,59.956,-65.902,-21.925
0.350,37.494,5.207,5.389,59.700,-66.024,-22.143
0.351,37.870,5.273,5.489,59.429,-66.161,-22.367
0.352,38.259,5.353,5.594,59.149,-66.308,-22.592
0.354,38.650,5.452,5.702,58.866,-66.461,-22.814
0.355,39.038,5.569,5.814,58.585,-66.617,-23.031
0.356,39.413,5.700,5.924,58.312,-66.770,-23.239
0.358,39.768,5.838,6.031,58.053,-66.917,-23.432
0.359,40.095,5.975,6.131,57.814,-67.054,-23.609
0.360,40.387,6.106,6.220,57.601,-67.177,-23.764
0.361,40.634,6.224,6.296,57.419,-67.282,-23.895
0.363,40.830,6.320,6.355,57.273,-67.364,-23.997
0.364,40.974,6.390,6.394,57.165,-67.423,-24.071
0.365,41.072,6.431,6.412,57.090,-67.463,-24.120
0.367,41.129,6.447,6.415,57.044,-67.485,-24.147
0.368,41.153,6.444,6.407,57.023,-67.494,-24.156
0.369,41.161,6.427,6.392,57.024,-67.491,-24.149
0.371,41.189,6.401,6.376,57.041,-67.479,-24.130
0.372,41.233,6.371,6.362,57.072,-67.462,-24.103
0.373,41.288,6.344,6.356,57.111,-67.443,-24.070
0.375,41.347,6.322,6.362,57.155,-67.424,-24.035
0.376,41.406,6.308,6.379,57.200,-67.408,-24.002
0.377,41.457,6.301,6.404,57.242,-67.397,-23.973
0.379,41.498,6.300,6.434,57.276,-67.396,-23.951
0.380,41.525,6.303,6.465,57.299,-67.406,-23.941
0.381,41.550,6.309,6.496,57.310,-67.429,-23.943
0.383,41.586,6.318,6.521,57.308,-67.463,-23.955
0.384,41.636,6.329,6.539,57.297,-67.507,-23.977
0.385,41.700,6.340,6.546,57.276,-67.559,-24.007
0.387,41.775,6.351,6.544,57.248,-67.618,-24.043
0.388,41.859,6.362,6.535,57.213,-67.682,-24.085
0.389,41.951,6.371,6.520,57.173,-67.751,-24.132
0.391,42.047,6.378,6.501,57.130,-67.822,-24.180
0.392,42.147,6.383,6.479,57.084,-67.894,-24.230
0.393,42.246,6.385,6.457,57.037,-67.966,-24.280
0.394,42.344,6.384,6.435,56.990,-68.037,-24.329
0.396,42.438,6.379,6.416,56.945,-68.105,-24.375
0.397,42.525,6.372,6.399,56.902,-68.169,-24.417
0.398,42.605,6.364,6.385,56.863,-68.227,-24.454
0.400,42.678,6.357,6.373,56.828,-68.282,-24.487
0.401,42.745,6.353,6.365,56.796,-68.333,-24.516
0.402,42.807,6.352,6.360,56.767,-68.382,-24.541
0.404,42.865,6.356,6.358,56.742,-68.430,-24.564
0.405,42.920,6.367,6.360,56.721,-68.476,-24.584
0.406,42.973,6.383,6.367,56.703,-68.522,-24.601
0.408,43.024,6.402,6.377,56.688,-68.569,-24.617
0.409,43.076,6.423,6.392,56.676,-68.618,-24.631
0.410,43.129,6.443,6.410,56.668,-68.668,-24.645
0.412,43.185,6.461,6.433,56.664,-68.722,-24.657
0.413,43.243,6.474,6.460,56.662,-68.780,-24.670
0.414,43.307,6.481,6.491,56.664,-68.842,-24.682
0.416,43.376,6.480,6.525,56.669,-68.909,-24.695
0.417,43.449,6.473,6.562,56.675,-68.982,-24.708
0.418,43.528,6.462,6.599,56.681,-69.059,-24.721
0.420,43.610,6.448,6.632,56.685,-69.140,-24.733
0.421,43.696,6.434,6.662,56.687,-69.226,-24.743
0.422,43.787,6.420,6.684,56.685,-69.316,-24.753
0.423,43.881,6.410,6.697,56.677,-69.409,-24.761
0.425,43.980,6.405,6.698,56.662,-69.507,-24.766
0.426,44.084,6.405,6.688,56.639,-69.608,-24.770
0.427,44.193,6.408,6.667,56.606,-69.712,-24.770
0.429,44.309,6.413,6.638,56.562,-69.819,-24.768
0.430,44.433,6.416,6.602,56.505,-69.930,-24.762
0.431,44.566,6.416,6.561,56.435,-70.042,-24.752
0.433,44.710,6.410,6.517,56.351,-70.157,-24.739
0.434,44.861,6.398,6.471,56.255,-70.273,-24.722
0.435,45.018,6.376,6.425,56.150,-70.389,-24.702
0.437,45.179,6.346,6.380,56.038,-70.503,-24.680
0.438,45.341,6.309,6.337,55.923,-70.614,-24.656
0.439,45.502,6.268,6.297,55.806,-70.720,-24.630
0.441,45.658,6.224,6.261,55.690,-70.822,-24.603
0.442,45.807,6.179,6.230,55.578,-70.916,-24.576
0.443,45.946,6.135,6.205,55.472,-71.002,-24.549
0.445,46.072,6.094,6.186,55.375,-71.079,-24.523
0.446,46.183,6.057,6.174,55.290,-71.145,-24.497
0.447,46.276,6.024,6.169,55.218,-71.199,-24.473
0.449,46.348,5.996,6.167,55.164,-71.240,-24.450
0.450,46.399,5.972,6.169,55.126,-71.268,-24.431
0.451,46.432,5.953,6.172,55.103,-71.284,-24.414
0.453,46.453,5.938,6.176,55.090,-71.294,-24.401
0.454,46.464,5.927,6.178,55.084,-71.299,-24.392
0.455,46.470,5.921,6.178,55.082,-71.302,-24.388
0.456,46.475,5.918,6.175,55.080,-71.307,-24.389
0.458,46.489,5.917,6.167,55.074,-71.316,-24.396
0.459,46.514,5.915,6.155,55.061,-71.333,-24.410
0.460,46.556,5.912,6.137,55.037,-71.361,-24.431
0.462,46.620,5.904,6.114,54.999,-71.403,-24.460
0.463,46.709,5.890,6.084,54.943,-71.461,-24.497
0.464,46.828,5.869,6.047,54.865,-71.539,-24.543
0.466,46.983,5.838,6.003,54.762,-71.640,-24.599
0.467,47.174,5.799,5.953,54.633,-71.765,-24.664
0.468,47.398,5.755,5.899,54.480,-71.911,-24.738
0.470,47.649,5.708,5.843,54.308,-72.075,-24.818
0.471,47.919,5.661,5.787,54.122,-72.253,-24.902
0.472,48.205,5.615,5.733,53.926,-72.440,-24.989
0.474,48.498,5.575,5.683,53.724,-72.635,-25.077
0.475,48.794,5.541,5.638,53.521,-72.832,-25.165
0.476,49.087,5.516,5.602,53.322,-73.029,-25.250
0.478,49.370,5.499,5.571,53.130,-73.220,-25.331
0.479,49.638,5.489,5.547,52.950,-73.404,-25.406
0.480,49.884,5.484,5.528,52.787,-73.576,-25.473
0.482,50.104,5.482,5.512,52.644,-73.732,-25.531
0.483,50.290,5.483,5.500,52.527,-73.868,-25.577
0.484,50.439,5.485,5.491,52.437,-73.984,-25.612
0.485,50.557,5.487,5.482,52.373,-74.079,-25.634
0.487,50.648,5.488,5.475,52.331,-74.159,-25.646
0.488,50.719,5.488,5.469,52.305,-74.225,-25.649
0.489,50.776,5.487,5.465,52.294,-74.281,-25.643
0.491,50.827,5.485,5.463,52.292,-74.330,-25.630
0.492,50.877,5.482,5.463,52.296,-74.376,-25.611
0.493,50.928,5.478,5.465,52.303,-74.420,-25.587
0.495,50.983,5.473,5.471,52.307,-74.468,-25.558
0.496,51.044,5.466,5.478,52.306,-74.520,-25.527
0.497,51.115,5.460,5.489,52.296,-74.582,-25.494
0.499,51.199,5.454,5.502,52.272,-74.655,-25.461
0.500,51.301,5.450,5.516,52.231,-74.743,-25.427
0.501,51.427,5.449,5.531,52.170,-74.848,-25.396
0.503,51.574,5.452,5.547,52.091,-74.968,-25.365
0.504,51.739,5.460,5.563,51.997,-75.100,-25.337
0.505,51.918,5.473,5.578,51.890,-75.242,-25.310
0.507,52.107,5.493,5.593,51.775,-75.390,-25.284
0.508,52.303,5.518,5.607,51.653,-75.541,-25.261
0.509,52.500,5.545,5.621,51.528,-75.692,-25.240
0.511,52.695,5.573,5.634,51.403,-75.841,-25.220
0.512,52.885,5.600,5.646,51.281,-75.984,-25.203
0.513,53.064,5.624,5.659,51.164,-76.119,-25.188
0.515,53.228,5.643,5.671,51.057,-76.243,-25.175
0.516,53.374,5.656,5.684,50.960,-76.352,-25.165
0.517,53.497,5.662,5.696,50.879,-76.444,-25.156
0.518,53.594,5.662,5.708,50.815,-76.516,-25.151
0.520,53.666,5.659,5.718,50.767,-76.570,-25.147
0.521,53.716,5.654,5.727,50.734,-76.608,-25.145
0.522,53.747,5.649,5.734,50.714,-76.631,-25.145
0.524,53.760,5.644,5.739,50.707,-76.642,-25.147
0.525,53.764,5.642,5.741,50.710,-76.643,-25.149
0.526,53.779,5.643,5.740,50.722,-76.637,-25.153
0.528,53.803,5.648,5.736,50.742,-76.624,-25.157
0.529,53.834,5.656,5.730,50.768,-76.607,-25.161
0.530,53.869,5.665,5.723,50.798,-76.589,-25.166
0.532,53.907,5.674,5.716,50.832,-76.572,-25.170
0.533,53.946,5.683,5.710,50.867,-76.557,-25.174
0.534,53.983,5.690,5.706,50.902,-76.546,-25.177
0.536,54.017,5.694,5.704,50.936,-76.542,-25.179
0.537,54.049,5.696,5.705,50.968,-76.546,-25.181
0.538,54.077,5.694,5.707,50.994,-76.556,-25.183
0.540,54.105,5.690,5.711,51.015,-76.573,-25.186
0.541,54.132,5.683,5.713,51.028,-76.597,-25.191
0.542,54.164,5.675,5.714,51.032,-76.628,-25.197
0.544,54.204,5.665,5.713,51.026,-76.666,-25.206
0.545,54.254,5.653,5.707,51.007,-76.711,-25.218
0.546,54.317,5.641,5.696,50.974,-76.763,-25.234
0.547,54.396,5.628,5.680,50.926,-76.821,-25.254
0.549,54.492,5.615,5.661,50.861,-76.887,-25.280
0.550,54.606,5.602,5.640,50.778,-76.959,-25.311
0.551,54.742,5.590,5.618,50.675,-77.038,-25.349
0.553,54.900,5.580,5.598,50.550,-77.124,-25.393
