"T","Distance","Radius","FreeRadius","X","Y","Z"
0.000,0.000,2.089,2.089,-24.267,115.133,163.196
0.001,0.485,2.308,2.308,-23.981,115.513,163.098
0.003,0.966,2.524,2.524,-23.699,115.889,163.002
0.004,1.436,2.732,2.732,-23.421,116.258,162.908
0.005,1.892,2.930,2.930,-23.152,116.614,162.816
0.006,2.328,3.113,3.113,-22.894,116.955,162.729
0.008,2.740,3.278,3.278,-22.650,117.276,162.646
0.009,3.122,3.422,3.422,-22.423,117.574,162.570
0.010,3.470,3.540,3.540,-22.215,117.844,162.500
0.012,3.779,3.631,3.631,-22.029,118.082,162.438
0.013,4.043,3.698,3.698,-21.869,118.285,162.385
0.014,4.259,3.747,3.747,-21.736,118.449,162.342
0.015,4.421,3.781,3.781,-21.633,118.571,162.309
0.017,4.535,3.806,3.806,-21.558,118.652,162.286
0.018,4.605,3.826,3.826,-21.507,118.699,162.271
0.019,4.639,3.845,3.845,-21.478,118.717,162.264
0.020,4.653,3.868,3.868,-21.467,118.709,162.263
0.022,4.681,3.898,3.898,-21.471,118.682,162.267
0.023,4.726,3.932,3.932,-21.485,118.640,162.273
0.024,4.783,3.970,3.970,-21.507,118.588,162.282
0.026,4.847,4.008,4.008,-21.533,118.531,162.292
0.027,4.910,4.045,4.045,-21.560,118.474,162.302
0.028,4.969,4.078,4.078,-21.585,118.421,162.309
0.029,5.015,4.105,4.105,-21.603,118.379,162.314
0.031,5.049,4.125,4.125,-21.615,118.347,162.316
0.032,5.070,4.136,4.136,-21.619,118.326,162.316
0.033,5.082,4.141,4.141,-21.616,118.315,162.317
0.035,5.094,4.139,4.139,-21.605,118.312,162.317
0.036,5.113,4.135,4.135,-21.586,118.317,162.320
0.037,5.143,4.128,4.128,-21.560,118.330,162.325
0.038,5.183,4.120,4.120,-21.526,118.350,162.335
0.040,5.235,4.114,4.114,-21.484,118.376,162.349
0.041,5.298,4.111,4.111,-21.434,118.407,162.370
0.042,5.372,4.112,4.112,-21.375,118.443,162.399
0.044,5.458,4.116,4.116,-21.308,118.483,162.436
0.045,5.556,4.124,4.124,-21.234,118.527,162.481
0.046,5.663,4.136,4.136,-21.154,118.575,162.534
0.047,5.779,4.152,4.152,-21.070,118.627,162.595
0.049,5.902,4.172,4.172,-20.983,118.682,162.662
0.050,6.030,4.195,4.195,-20.896,118.742,162.734
0.051,6.162,4.223,4.223,-20.810,118.806,162.811
0.052,6.297,4.254,4.254,-20.727,118.875,162.892
0.054,6.433,4.288,4.288,-20.649,118.948,162.977
0.055,6.570,4.324,4.324,-20.577,119.026,163.063
0.056,6.707,4.363,4.363,-20.513,119.109,163.152
0.058,6.844,4.402,4.402,-20.459,119.197,163.241
0.059,6.979,4.442,4.442,-20.416,119.289,163.331
0.060,7.114,4.483,4.483,-20.381,119.384,163.420
0.061,7.248,4.523,4.523,-20.355,119.481,163.508
0.063,7.380,4.562,4.562,-20.336,119.579,163.595
0.064,7.509,4.600,4.600,-20.323,119.676,163.679
0.065,7.634,4.637,4.637,-20.314,119.771,163.760
0.067,7.754,4.672,4.672,-20.308,119.863,163.838
0.068,7.869,4.706,4.706,-20.304,119.950,163.911
0.069,7.975,4.737,4.737,-20.301,120.031,163.979
0.070,8.072,4.767,4.767,-20.298,120.105,164.043
0.072,8.159,4.793,4.793,-20.294,120.171,164.099
0.073,8.236,4.817,4.817,-20.287,120.228,164.150
0.074,8.301,4.837,4.837,-20.279,120.275,164.194
0.076,8.356,4.854,4.854,-20.270,120.315,164.231
0.077,8.401,4.867,4.867,-20.262,120.347,164.262
0.078,8.437,4.876,4.876,-20.255,120.372,164.287
0.079,8.464,4.880,4.880,-20.251,120.391,164.305
0.081,8.481,4.878,4.878,-20.249,120.404,164.316
0.082,8.491,4.872,4.872,-20.252,120.412,164.322
0.083,8.499,4.862,4.862,-20.260,120.415,164.321
0.085,8.515,4.850,4.850,-20.273,120.414,164.314
0.086,8.539,4.838,4.838,-20.293,120.410,164.300
0.087,8.573,4.828,4.828,-20.320,120.404,164.281
0.088,8.612,4.821,4.821,-20.352,120.395,164.259
0.090,8.653,4.819,4.819,-20.384,120.386,164.235
0.091,8.692,4.825,4.825,-20.414,120.378,164.213
0.092,8.724,4.839,4.839,-20.439,120.371,164.195
0.093,8.744,4.858,4.858,-20.456,120.367,164.183
0.095,8.750,4.879,4.879,-20.461,120.366,164.180
0.096,8.764,4.897,4.897,-20.451,120.371,164.188
0.097,8.801,4.909,4.909,-20.423,120.381,164.211
0.099,8.866,4.911,4.911,-20.373,120.398,164.249
0.100,8.963,4.899,4.899,-20.299,120.424,164.307
0.101,9.095,4.869,4.869,-20.199,120.459,164.385
0.102,9.260,4.821,4.821,-20.074,120.501,164.483
0.104,9.452,4.756,4.756,-19.928,120.551,164.599
0.105,9.669,4.681,4.681,-19.765,120.607,164.730
0.106,9.905,4.599,4.599,-19.589,120.667,164.875
0.108,10.156,4.516,4.516,-19.404,120.731,165.032
0.109,10.418,4.436,4.436,-19.212,120.797,165.198
0.110,10.686,4.364,4.364,-19.019,120.863,165.372
0.111,10.957,4.305,4.305,-18.828,120.930,165.552
0.113,11.226,4.261,4.261,-18.643,120.995,165.735
0.114,11.489,4.232,4.232,-18.466,121.058,165.920
0.115,11.742,4.216,4.216,-18.303,121.117,166.104
0.117,11.984,4.213,4.213,-18.154,121.172,166.287
0.118,12.214,4.219,4.219,-18.017,121.222,166.465
0.119,12.433,4.235,4.235,-17.894,121.268,166.639
0.120,12.638,4.259,4.259,-17.782,121.310,166.807
0.122,12.830,4.289,4.289,-17.682,121.348,166.966
0.123,13.008,4.324,4.324,-17.592,121.382,167.116
0.124,13.171,4.362,4.362,-17.513,121.411,167.256
0.125,13.318,4.402,4.402,-17.444,121.436,167.383
0.127,13.448,4.441,4.441,-17.384,121.456,167.496
0.128,13.559,4.478,4.478,-17.333,121.472,167.594
0.129,13.652,4.511,4.511,-17.290,121.484,167.675
0.131,13.727,4.539,4.539,-17.254,121.492,167.741
0.132,13.786,4.559,4.559,-17.224,121.496,167.791
0.133,13.831,4.571,4.571,-17.200,121.498,167.830
0.134,13.865,4.578,4.577,-17.180,121.498,167.857
0.136,13.889,4.579,4.579,-17.164,121.497,167.875
0.137,13.907,4.576,4.576,-17.150,121.495,167.886
0.138,13.920,4.571,4.571,-17.138,121.493,167.891
0.140,13.932,4.565,4.565,-17.127,121.492,167.893
0.141,13.943,4.559,4.559,-17.115,121.493,167.892
0.142,13.956,4.555,4.555,-17.103,121.496,167.892
0.143,13.973,4.553,4.553,-17.088,121.503,167.893
0.145,13.992,4.552,4.553,-17.071,121.512,167.896
0.146,14.014,4.552,4.553,-17.053,121.522,167.902
0.147,14.036,4.552,4.553,-17.035,121.533,167.908
0.149,14.056,4.552,4.553,-17.019,121.543,167.917
0.150,14.074,4.551,4.551,-17.006,121.551,167.925
0.151,14.087,4.548,4.548,-16.998,121.556,167.935
0.152,14.097,4.543,4.542,-16.995,121.557,167.944
0.154,14.107,4.536,4.535,-16.999,121.552,167.952
0.155,14.126,4.527,4.525,-17.011,121.539,167.960
0.156,14.156,4.517,4.515,-17.032,121.519,167.966
0.157,14.200,4.507,4.505,-17.064,121.489,167.970
0.159,14.256,4.497,4.494,-17.106,121.451,167.972
0.160,14.319,4.487,4.485,-17.152,121.409,167.973
0.161,14.380,4.478,4.478,-17.197,121.367,167.974
0.163,14.433,4.471,4.473,-17.235,121.331,167.976
0.164,14.469,4.466,4.471,-17.261,121.306,167.978
0.165,14.483,4.465,4.472,-17.269,121.296,167.983
0.166,14.503,4.469,4.478,-17.253,121.306,167.992
0.168,14.562,4.479,4.489,-17.208,121.341,168.003
0.169,14.666,4.496,4.505,-17.128,121.406,168.020
0.170,14.824,4.522,4.528,-17.008,121.506,168.042
0.172,15.043,4.557,4.558,-16.841,121.646,168.071
0.173,15.326,4.603,4.595,-16.627,121.827,168.106
0.174,15.664,4.658,4.640,-16.371,122.043,168.147
0.175,16.043,4.719,4.692,-16.084,122.287,168.192
0.177,16.452,4.785,4.749,-15.775,122.550,168.239
0.178,16.878,4.851,4.813,-15.452,122.824,168.289
0.179,17.309,4.916,4.882,-15.127,123.103,168.338
0.181,17.734,4.978,4.955,-14.806,123.377,168.387
0.182,18.139,5.033,5.033,-14.501,123.640,168.432
0.183,18.512,5.080,5.114,-14.220,123.882,168.474
0.184,18.842,5.120,5.196,-13.973,124.097,168.511
0.186,19.116,5.153,5.276,-13.769,124.277,168.541
0.187,19.325,5.182,5.352,-13.614,124.415,168.563
0.188,19.471,5.208,5.420,-13.506,124.514,168.578
0.190,19.564,5.231,5.479,-13.440,124.578,168.586
0.191,19.609,5.254,5.525,-13.409,124.611,168.589
0.192,19.616,5.277,5.555,-13.408,124.618,168.587
0.193,19.644,5.301,5.568,-13.431,124.603,168.581
0.195,19.697,5.327,5.567,-13.471,124.570,168.572
0.196,19.768,5.352,5.555,-13.525,124.525,168.561
0.197,19.850,5.376,5.536,-13.584,124.471,168.547
0.198,19.935,5.399,5.511,-13.645,124.413,168.534
0.200,20.017,5.419,5.485,-13.701,124.354,168.520
0.201,20.089,5.436,5.461,-13.746,124.301,168.507
0.202,20.148,5.448,5.442,-13.780,124.253,168.494
0.204,20.195,5.456,5.430,-13.804,124.215,168.483
0.205,20.228,5.460,5.424,-13.817,124.186,168.473
0.206,20.248,5.461,5.423,-13.821,124.169,168.464
0.207,20.258,5.459,5.426,-13.815,124.165,168.455
0.209,20.277,5.457,5.431,-13.802,124.176,168.448
0.210,20.313,5.454,5.438,-13.780,124.203,168.441
0.211,20.367,5.451,5.445,-13.752,124.249,168.436
0.213,20.441,5.449,5.452,-13.717,124.314,168.431
0.214,20.537,5.450,5.457,-13.676,124.400,168.426
0.215,20.656,5.452,5.462,-13.629,124.510,168.423
0.216,20.795,5.457,5.467,-13.579,124.639,168.420
0.218,20.951,5.464,5.473,-13.525,124.785,168.418
0.219,21.117,5.474,5.480,-13.469,124.943,168.416
0.220,21.291,5.487,5.491,-13.413,125.107,168.415
0.222,21.466,5.503,5.504,-13.357,125.273,168.414
0.223,21.639,5.523,5.522,-13.303,125.437,168.413
0.224,21.804,5.546,5.544,-13.252,125.593,168.412
0.225,21.956,5.571,5.568,-13.205,125.738,168.411
0.227,22.091,5.596,5.593,-13.164,125.867,168.409
0.228,22.205,5.621,5.619,-13.129,125.975,168.407
0.229,22.292,5.644,5.642,-13.102,126.058,168.405
0.230,22.352,5.663,5.662,-13.083,126.115,168.402
0.232,22.391,5.679,5.678,-13.070,126.152,168.399
0.233,22.412,5.689,5.689,-13.064,126.171,168.395
0.234,22.421,5.693,5.694,-13.061,126.179,168.391
0.236,22.425,5.693,5.694,-13.062,126.179,168.387
0.237,22.431,5.690,5.691,-13.064,126.176,168.382
0.238,22.437,5.686,5.687,-13.068,126.174,168.378
0.239,22.444,5.682,5.683,-13.071,126.179,168.373
0.241,22.460,5.680,5.680,-13.072,126.193,168.369
0.242,22.490,5.680,5.680,-13.071,126.223,168.365
0.243,22.540,5.683,5.683,-13.065,126.273,168.360
0.245,22.611,5.691,5.690,-13.056,126.344,168.357
0.246,22.701,5.702,5.701,-13.042,126.432,168.355
0.247,22.806,5.716,5.715,-13.026,126.536,168.355
0.248,22.922,5.732,5.730,-13.008,126.650,168.359
0.250,23.046,5.748,5.747,-12.989,126.773,168.366
0.251,23.175,5.766,5.765,-12.969,126.900,168.378
0.252,23.306,5.783,5.783,-12.950,127.028,168.396
0.254,23.435,5.800,5.801,-12.933,127.154,168.421
0.255,23.561,5.816,5.818,-12.918,127.274,168.453
0.256,23.680,5.830,5.834,-12.906,127.385,168.493
0.257,23.790,5.844,5.848,-12.898,127.484,168.543
0.259,23.893,5.856,5.861,-12.894,127.568,168.602
0.260,23.990,5.867,5.872,-12.894,127.638,168.668
0.261,24.082,5.877,5.880,-12.898,127.695,168.741
0.262,24.170,5.886,5.886,-12.904,127.740,168.816
0.264,24.256,5.893,5.889,-12.913,127.775,168.894
0.265,24.338,5.899,5.890,-12.923,127.799,168.972
0.266,24.416,5.904,5.890,-12.935,127.815,169.047
0.268,24.488,5.907,5.890,-12.946,127.823,169.118
0.269,24.555,5.909,5.891,-12.958,127.824,169.184
0.270,24.613,5.911,5.895,-12.969,127.820,169.241
0.271,24.662,5.911,5.901,-12.979,127.811,169.288
0.273,24.701,5.910,5.912,-12.986,127.799,169.324
0.274,24.730,5.909,5.928,-12.990,127.787,169.351
0.275,24.751,5.905,5.945,-12.987,127.778,169.370
0.277,24.769,5.897,5.960,-12.976,127.776,169.383
0.278,24.794,5.883,5.970,-12.954,127.784,169.394
0.279,24.836,5.862,5.971,-12.920,127.805,169.403
0.280,24.898,5.831,5.959,-12.870,127.842,169.414
0.282,24.987,5.791,5.930,-12.804,127.900,169.428
0.283,25.106,5.738,5.881,-12.719,127.980,169.447
0.284,25.260,5.672,5.810,-12.613,128.088,169.475
0.286,25.452,5.596,5.722,-12.483,128.225,169.512
0.287,25.687,5.513,5.620,-12.328,128.395,169.560
0.288,25.959,5.426,5.511,-12.152,128.592,169.621
0.289,26.260,5.337,5.398,-11.958,128.812,169.692
0.291,26.582,5.251,5.288,-11.751,129.046,169.772
0.292,26.918,5.169,5.184,-11.537,129.288,169.862
0.293,27.259,5.096,5.092,-11.319,129.532,169.959
0.294,27.598,5.032,5.015,-11.103,129.771,170.064
0.296,27.927,4.978,4.952,-10.892,129.998,170.174
0.297,28.239,4.932,4.902,-10.691,130.207,170.290
0.298,28.526,4.893,4.862,-10.506,130.391,170.410
0.300,28.783,4.860,4.833,-10.341,130.544,170.534
0.301,29.005,4.832,4.813,-10.199,130.659,170.660
0.302,29.197,4.809,4.800,-10.081,130.740,170.788
0.303,29.367,4.788,4.793,-9.983,130.792,170.917
0.305,29.523,4.770,4.791,-9.903,130.822,171.047
0.306,29.670,4.754,4.792,-9.838,130.838,171.178
0.307,29.811,4.741,4.796,-9.783,130.847,171.307
0.309,29.948,4.731,4.803,-9.737,130.854,171.437
0.310,30.083,4.725,4.810,-9.696,130.868,171.564
0.311,30.217,4.721,4.816,-9.658,130.896,171.690
0.312,30.355,4.722,4.822,-9.618,130.943,171.813
0.314,30.503,4.726,4.825,-9.575,131.017,171.934
0.315,30.670,4.733,4.826,-9.524,131.125,172.050
0.316,30.859,4.744,4.826,-9.466,131.266,172.163
0.318,31.070,4.756,4.824,-9.403,131.435,172.272
0.319,31.297,4.770,4.821,-9.335,131.626,172.375
0.320,31.535,4.785,4.819,-9.265,131.831,172.474
0.321,31.780,4.800,4.818,-9.194,132.046,172.567
0.323,32.024,4.813,4.818,-9.123,132.263,172.654
0.324,32.263,4.826,4.821,-9.056,132.477,172.734
0.325,32.490,4.836,4.825,-8.992,132.682,172.809
0.327,32.699,4.846,4.832,-8.934,132.871,172.876
0.328,32.884,4.854,4.841,-8.884,133.039,172.936
0.329,33.039,4.862,4.851,-8.843,133.179,172.988
0.330,33.161,4.870,4.862,-8.811,133.289,173.032
0.332,33.256,4.878,4.873,-8.788,133.372,173.070
0.333,33.328,4.887,4.886,-8.771,133.433,173.103
0.334,33.380,4.896,4.898,-8.759,133.476,173.132
0.335,33.418,4.907,4.910,-8.751,133.503,173.157
0.337,33.447,4.918,4.923,-8.746,133.520,173.180
0.338,33.472,4.930,4.935,-8.741,133.529,173.203
0.339,33.496,4.942,4.947,-8.736,133.535,173.225
0.341,33.521,4.955,4.958,-8.729,133.541,173.249
0.342,33.552,4.968,4.970,-8.718,133.552,173.275
0.343,33.590,4.980,4.981,-8.702,133.571,173.304
0.344,33.640,4.993,4.991,-8.680,133.600,173.338
0.346,33.700,5.005,5.002,-8.653,133.639,173.375
0.347,33.769,5.016,5.011,-8.622,133.687,173.415
0.348,33.847,5.027,5.021,-8.586,133.741,173.458
0.350,33.931,5.036,5.030,-8.546,133.801,173.501
0.351,34.020,5.045,5.039,-8.504,133.865,173.546
0.352,34.113,5.052,5.048,-8.459,133.933,173.591
0.353,34.208,5.057,5.057,-8.412,134.002,173.636
0.355,34.303,5.061,5.066,-8.364,134.072,173.680
0.356,34.398,5.064,5.074,-8.316,134.141,173.722
0.357,34.490,5.065,5.082,-8.267,134.209,173.761
0.359,34.578,5.066,5.090,-8.219,134.273,173.798
0.360,34.662,5.067,5.097,-8.173,134.333,173.832
0.361,34.740,5.067,5.102,-8.128,134.389,173.864
0.362,34.811,5.069,5.107,-8.085,134.439,173.892
0.364,34.875,5.071,5.111,-8.045,134.482,173.917
0.365,34.930,5.074,5.113,-8.010,134.518,173.939
0.366,34.977,5.078,5.114,-7.978,134.546,173.958
0.367,35.013,5.083,5.114,-7.951,134.565,173.975
0.369,35.040,5.089,5.114,-7.930,134.575,173.988
0.370,35.058,5.094,5.113,-7.915,134.574,173.998
0.371,35.075,5.100,5.112,-7.907,134.561,174.005
0.373,35.099,5.106,5.111,-7.905,134.538,174.009
0.374,35.131,5.111,5.110,-7.909,134.506,174.012
0.375,35.167,5.116,5.111,-7.916,134.471,174.013
0.376,35.201,5.120,5.112,-7.923,134.438,174.015
0.378,35.228,5.123,5.114,-7.928,134.411,174.019
0.379,35.245,5.127,5.117,-7.928,134.395,174.025
0.380,35.257,5.130,5.122,-7.922,134.395,174.035
0.382,35.287,5.134,5.128,-7.907,134.415,174.050
0.383,35.344,5.137,5.136,-7.879,134.461,174.072
0.384,35.435,5.141,5.146,-7.838,134.536,174.100
0.385,35.564,5.146,5.158,-7.781,134.647,174.138
0.387,35.738,5.152,5.172,-7.705,134.795,174.185
0.388,35.952,5.160,5.190,-7.612,134.979,174.241
0.389,36.197,5.170,5.212,-7.505,135.191,174.304
0.391,36.467,5.183,5.237,-7.387,135.425,174.372
0.392,36.754,5.200,5.267,-7.262,135.672,174.443
0.393,37.049,5.221,5.302,-7.132,135.927,174.516
0.394,37.345,5.247,5.343,-7.001,136.183,174.589
0.396,37.634,5.278,5.389,-6.872,136.431,174.660
0.397,37.908,5.312,5.438,-6.748,136.666,174.727
0.398,38.159,5.349,5.488,-6.632,136.880,174.788
0.399,38.380,5.386,5.537,-6.528,137.067,174.842
0.401,38.563,5.424,5.584,-6.437,137.220,174.887
0.402,38.707,5.459,5.627,-6.362,137.337,174.923
0.403,38.815,5.493,5.663,-6.301,137.422,174.950
0.405,38.892,5.522,5.690,-6.253,137.480,174.968
0.406,38.942,5.546,5.709,-6.218,137.513,174.980
0.407,38.969,5.566,5.720,-6.193,137.525,174.984
0.408,38.985,5.582,5.723,-6.179,137.519,174.982
0.410,39.006,5.595,5.721,-6.174,137.500,174.975
0.411,39.038,5.604,5.713,-6.177,137.471,174.963
0.412,39.079,5.611,5.701,-6.187,137.435,174.946
0.414,39.126,5.615,5.686,-6.204,137.396,174.926
0.415,39.175,5.616,5.669,-6.225,137.357,174.904
0.416,39.225,5.616,5.651,-6.251,137.322,174.880
0.417,39.272,5.614,5.633,-6.277,137.291,174.856
0.419,39.314,5.611,5.617,-6.302,137.265,174.834
0.420,39.347,5.607,5.603,-6.323,137.247,174.816
0.421,39.369,5.602,5.593,-6.338,137.238,174.804
0.423,39.376,5.598,5.588,-6.343,137.238,174.799
0.424,39.389,5.593,5.590,-6.338,137.249,174.804
0.425,39.424,5.589,5.599,-6.318,137.272,174.820
0.426,39.483,5.586,5.614,-6.282,137.309,174.850
0.428,39.571,5.585,5.636,-6.227,137.361,174.895
0.429,39.691,5.587,5.662,-6.151,137.429,174.956
0.430,39.842,5.593,5.691,-6.053,137.514,175.035
0.431,40.020,5.603,5.723,-5.937,137.612,175.128
0.433,40.219,5.618,5.755,-5.807,137.719,175.233
0.434,40.432,5.639,5.786,-5.668,137.834,175.348
0.435,40.655,5.667,5.816,-5.523,137.952,175.468
0.437,40.880,5.700,5.844,-5.377,138.071,175.592
0.438,41.102,5.737,5.869,-5.234,138.188,175.716
0.439,41.316,5.775,5.892,-5.098,138.298,175.838
0.440,41.516,5.813,5.913,-4.972,138.400,175.955
0.442,41.695,5.848,5.931,-4.862,138.489,176.063
0.443,41.848,5.878,5.947,-4.771,138.564,176.161
0.444,41.972,5.902,5.961,-4.701,138.621,176.247
0.446,42.072,5.918,5.972,-4.651,138.663,176.323
0.447,42.152,5.927,5.981,-4.617,138.691,176.390
0.448,42.220,5.930,5.989,-4.596,138.708,176.453
0.449,42.282,5.930,5.996,-4.586,138.716,176.512
0.451,42.341,5.927,6.003,-4.582,138.716,176.572
0.452,42.403,5.924,6.011,-4.582,138.712,176.634
0.453,42.471,5.922,6.021,-4.583,138.705,176.701
0.455,42.546,5.924,6.032,-4.581,138.697,176.775
0.456,42.631,5.930,6.047,-4.574,138.691,176.860
0.457,42.730,5.940,6.063,-4.558,138.688,176.957
0.458,42.844,5.955,6.082,-4.531,138.691,177.069
0.460,42.974,5.973,6.102,-4.494,138.699,177.193
0.461,43.114,5.995,6.122,-4.449,138.711,177.325
0.462,43.262,6.020,6.144,-4.398,138.726,177.463
0.464,43.414,6.047,6.164,-4.342,138.744,177.603
0.465,43.566,6.077,6.185,-4.284,138.764,177.742
0.466,43.714,6.108,6.204,-4.224,138.786,177.876
0.467,43.854,6.140,6.221,-4.167,138.807,178.002
0.469,43.984,6.171,6.237,-4.112,138.829,178.118
0.470,44.098,6.200,6.250,-4.062,138.849,178.218
0.471,44.194,6.226,6.260,-4.018,138.867,178.301
0.472,44.267,6.248,6.267,-3.983,138.882,178.364
0.474,44.321,6.263,6.271,-3.956,138.896,178.408
0.475,44.359,6.272,6.270,-3.936,138.907,178.439
0.476,44.387,6.274,6.266,-3.920,138.918,178.460
0.478,44.409,6.270,6.260,-3.909,138.929,178.475
0.479,44.430,6.263,6.252,-3.901,138.941,178.490
0.480,44.453,6.254,6.244,-3.895,138.953,178.508
0.481,44.483,6.246,6.238,-3.889,138.968,178.534
0.483,44.526,6.240,6.236,-3.882,138.986,178.572
0.484,44.585,6.239,6.237,-3.873,139.007,178.626
0.485,44.665,6.245,6.245,-3.861,139.033,178.701
0.487,44.770,6.258,6.260,-3.844,139.063,178.801
0.488,44.900,6.277,6.279,-3.823,139.099,178.924
0.489,45.049,6.302,6.304,-3.797,139.137,179.065
0.490,45.212,6.330,6.332,-3.769,139.179,179.221
0.492,45.385,6.361,6.362,-3.739,139.222,179.386
0.493,45.563,6.394,6.394,-3.706,139.266,179.555
0.494,45.742,6.426,6.426,-3.673,139.310,179.725
0.496,45.915,6.458,6.458,-3.640,139.353,179.889
0.497,46.078,6.488,6.489,-3.608,139.394,180.044
0.498,46.228,6.516,6.517,-3.576,139.431,180.185
0.499,46.357,6.542,6.544,-3.547,139.465,180.307
0.501,46.463,6.565,6.568,-3.521,139.494,180.406
0.502,46.545,6.586,6.589,-3.497,139.517,180.481
0.503,46.607,6.605,6.607,-3.476,139.536,180.535
0.504,46.652,6.620,6.621,-3.457,139.549,180.574
0.506,46.686,6.633,6.632,-3.440,139.559,180.601
0.507,46.712,6.643,6.638,-3.423,139.564,180.620
0.508,46.734,6.650,6.642,-3.407,139.566,180.635
0.510,46.756,6.656,6.645,-3.390,139.564,180.650
0.511,46.782,6.660,6.648,-3.373,139.559,180.670
0.512,46.816,6.663,6.651,-3.355,139.551,180.697
0.513,46.861,6.666,6.657,-3.336,139.540,180.736
0.515,46.922,6.669,6.666,-3.314,139.528,180.792
0.516,47.000,6.672,6.679,-3.290,139.513,180.865
0.517,47.093,6.675,6.695,-3.264,139.498,180.952
0.519,47.198,6.680,6.715,-3.237,139.481,181.052
0.520,47.312,6.687,6.737,-3.208,139.465,181.161
0.521,47.432,6.695,6.759,-3.178,139.448,181.277
0.522,47.556,6.705,6.780,-3.148,139.433,181.396
0.524,47.681,6.718,6.801,-3.117,139.419,181.516
0.525,47.803,6.734,6.818,-3.085,139.408,181.634
0.526,47.921,6.752,6.832,-3.055,139.399,181.747
