"T","Distance","Radius","FreeRadius","X","Y","Z"
0.000,0.000,2.787,2.787,258.611,235.139,242.266
0.001,0.253,2.875,2.875,258.477,235.003,242.100
0.003,0.504,2.964,2.964,258.344,234.868,241.936
0.004,0.751,3.055,3.055,258.212,234.736,241.775
0.006,0.992,3.148,3.148,258.083,234.607,241.618
0.007,1.225,3.244,3.244,257.957,234.482,241.466
0.009,1.448,3.344,3.344,257.835,234.363,241.322
0.010,1.660,3.449,3.449,257.718,234.251,241.186
0.012,1.857,3.559,3.559,257.606,234.148,241.060
0.013,2.040,3.670,3.670,257.501,234.053,240.944
0.014,2.204,3.778,3.778,257.404,233.969,240.842
0.016,2.349,3.879,3.879,257.314,233.896,240.753
0.017,2.474,3.970,3.970,257.234,233.836,240.680
0.019,2.579,4.045,4.045,257.162,233.788,240.621
0.020,2.666,4.101,4.101,257.099,233.750,240.574
0.022,2.737,4.135,4.135,257.044,233.723,240.538
0.023,2.794,4.150,4.150,256.998,233.703,240.511
0.025,2.839,4.150,4.150,256.959,233.692,240.492
0.026,2.874,4.141,4.141,256.928,233.686,240.478
0.027,2.900,4.124,4.124,256.904,233.685,240.468
0.029,2.918,4.107,4.107,256.887,233.689,240.460
0.030,2.932,4.091,4.091,256.877,233.695,240.453
0.032,2.944,4.081,4.081,256.874,233.703,240.445
0.033,2.958,4.078,4.078,256.876,233.712,240.434
0.035,2.977,4.078,4.078,256.885,233.720,240.419
0.036,2.999,4.083,4.083,256.898,233.727,240.403
0.038,3.025,4.091,4.091,256.915,233.733,240.385
0.039,3.053,4.101,4.101,256.934,233.737,240.365
0.040,3.082,4.112,4.112,256.956,233.738,240.345
0.042,3.113,4.124,4.124,256.979,233.736,240.324
0.043,3.144,4.136,4.136,257.001,233.729,240.304
0.045,3.175,4.148,4.148,257.023,233.718,240.286
0.046,3.206,4.159,4.159,257.043,233.701,240.269
0.048,3.238,4.169,4.169,257.060,233.678,240.254
0.049,3.272,4.178,4.178,257.074,233.649,240.242
0.051,3.311,4.185,4.185,257.084,233.613,240.232
0.052,3.355,4.191,4.191,257.091,233.571,240.222
0.053,3.403,4.195,4.195,257.097,233.524,240.212
0.055,3.457,4.197,4.197,257.102,233.472,240.197
0.056,3.516,4.198,4.198,257.106,233.416,240.178
0.058,3.581,4.199,4.199,257.112,233.357,240.152
0.059,3.652,4.198,4.198,257.120,233.296,240.117
0.061,3.731,4.196,4.196,257.130,233.232,240.072
0.062,3.819,4.194,4.194,257.145,233.168,240.015
0.064,3.917,4.193,4.193,257.163,233.102,239.943
0.065,4.029,4.193,4.193,257.188,233.037,239.855
0.066,4.154,4.196,4.196,257.218,232.973,239.752
0.068,4.290,4.203,4.203,257.253,232.910,239.637
0.069,4.432,4.214,4.214,257.292,232.851,239.514
0.071,4.577,4.232,4.232,257.333,232.795,239.386
0.072,4.722,4.255,4.255,257.376,232.743,239.258
0.074,4.862,4.283,4.283,257.420,232.698,239.134
0.075,4.993,4.312,4.312,257.463,232.658,239.016
0.077,5.112,4.341,4.341,257.505,232.627,238.910
0.078,5.214,4.367,4.367,257.545,232.604,238.818
0.079,5.297,4.388,4.388,257.581,232.590,238.745
0.081,5.357,4.401,4.401,257.612,232.587,238.694
0.082,5.395,4.405,4.405,257.639,232.593,238.668
0.084,5.421,4.402,4.402,257.660,232.607,238.660
0.085,5.446,4.393,4.393,257.676,232.625,238.667
0.087,5.473,4.381,4.381,257.688,232.642,238.684
0.088,5.500,4.368,4.368,257.696,232.657,238.706
0.090,5.523,4.357,4.357,257.699,232.665,238.727
0.091,5.539,4.348,4.348,257.699,232.662,238.743
0.092,5.556,4.344,4.344,257.695,232.647,238.748
0.094,5.591,4.343,4.343,257.688,232.614,238.738
0.095,5.653,4.344,4.344,257.678,232.561,238.708
0.097,5.748,4.344,4.344,257.665,232.485,238.652
0.098,5.881,4.342,4.342,257.649,232.383,238.568
0.100,6.047,4.336,4.336,257.631,232.259,238.459
0.101,6.239,4.323,4.323,257.611,232.118,238.331
0.103,6.449,4.304,4.304,257.589,231.965,238.188
0.104,6.671,4.278,4.278,257.566,231.805,238.036
0.105,6.897,4.248,4.248,257.542,231.643,237.881
0.107,7.120,4.214,4.214,257.517,231.484,237.727
0.108,7.332,4.179,4.179,257.491,231.333,237.579
0.110,7.528,4.143,4.143,257.466,231.194,237.444
0.111,7.699,4.107,4.107,257.440,231.074,237.325
0.113,7.838,4.074,4.074,257.415,230.976,237.229
0.114,7.940,4.044,4.044,257.391,230.905,237.160
0.116,8.009,4.017,4.017,257.369,230.859,237.114
0.117,8.051,3.994,3.994,257.349,230.833,237.088
0.118,8.073,3.976,3.976,257.333,230.823,237.076
0.120,8.085,3.964,3.964,257.321,230.825,237.074
0.121,8.097,3.959,3.959,257.314,230.835,237.078
0.123,8.110,3.960,3.960,257.313,230.847,237.081
0.124,8.124,3.964,3.964,257.320,230.859,237.080
0.126,8.142,3.969,3.969,257.335,230.865,237.070
0.127,8.176,3.971,3.971,257.358,230.861,237.046
0.129,8.234,3.968,3.968,257.392,230.843,237.003
0.130,8.321,3.956,3.956,257.436,230.807,236.937
0.132,8.438,3.933,3.933,257.491,230.754,236.848
0.133,8.583,3.897,3.897,257.557,230.683,236.740
0.134,8.752,3.851,3.851,257.632,230.599,236.615
0.136,8.941,3.799,3.799,257.718,230.502,236.477
0.137,9.148,3.747,3.747,257.814,230.394,236.328
0.139,9.369,3.699,3.699,257.918,230.278,236.172
0.140,9.601,3.657,3.657,258.032,230.155,236.012
0.142,9.841,3.628,3.628,258.155,230.027,235.850
0.143,10.085,3.614,3.614,258.286,229.896,235.691
0.145,10.331,3.614,3.614,258.426,229.764,235.537
0.146,10.577,3.627,3.627,258.573,229.634,235.390
0.147,10.820,3.652,3.652,258.726,229.505,235.252
0.149,11.059,3.688,3.688,258.882,229.380,235.121
0.150,11.293,3.734,3.734,259.038,229.258,234.995
0.152,11.521,3.788,3.788,259.190,229.141,234.873
0.153,11.740,3.849,3.849,259.335,229.030,234.752
0.155,11.950,3.914,3.914,259.471,228.924,234.631
0.156,12.149,3.979,3.979,259.593,228.826,234.508
0.158,12.337,4.042,4.042,259.699,228.736,234.382
0.159,12.514,4.097,4.097,259.786,228.655,234.251
0.160,12.682,4.144,4.144,259.849,228.583,234.113
0.162,12.846,4.177,4.177,259.887,228.521,233.966
0.163,13.012,4.196,4.196,259.899,228.470,233.809
0.165,13.185,4.205,4.205,259.888,228.429,233.641
0.166,13.370,4.210,4.210,259.858,228.397,233.461
0.168,13.570,4.216,4.216,259.812,228.373,233.268
0.169,13.785,4.228,4.229,259.754,228.356,233.062
0.171,14.017,4.252,4.252,259.688,228.346,232.840
0.172,14.265,4.293,4.293,259.616,228.342,232.602
0.173,14.530,4.355,4.355,259.544,228.343,232.348
0.175,14.811,4.435,4.435,259.473,228.349,232.076
0.176,15.109,4.534,4.534,259.409,228.358,231.784
0.178,15.425,4.648,4.648,259.353,228.370,231.474
0.179,15.758,4.776,4.776,259.310,228.384,231.144
0.181,16.102,4.917,4.917,259.276,228.401,230.802
0.182,16.453,5.068,5.068,259.252,228.420,230.453
0.184,16.803,5.227,5.227,259.234,228.441,230.103
0.185,17.147,5.390,5.390,259.222,228.464,229.760
0.186,17.480,5.551,5.551,259.215,228.490,229.429
0.188,17.794,5.705,5.705,259.209,228.517,229.116
0.189,18.083,5.848,5.849,259.205,228.547,228.828
0.191,18.343,5.975,5.975,259.200,228.579,228.571
0.192,18.565,6.081,6.081,259.194,228.613,228.351
0.194,18.746,6.162,6.162,259.183,228.649,228.174
0.195,18.881,6.221,6.221,259.168,228.686,228.045
0.197,18.976,6.261,6.260,259.150,228.722,227.959
0.198,19.037,6.283,6.282,259.132,228.754,227.910
0.199,19.071,6.290,6.290,259.116,228.777,227.893
0.201,19.090,6.286,6.285,259.104,228.790,227.901
0.202,19.119,6.272,6.272,259.098,228.788,227.929
0.204,19.165,6.250,6.251,259.101,228.769,227.971
0.205,19.231,6.222,6.223,259.115,228.728,228.021
0.207,19.319,6.188,6.190,259.143,228.664,228.073
0.208,19.431,6.149,6.152,259.186,228.572,228.122
0.210,19.574,6.107,6.109,259.247,228.449,228.162
0.211,19.751,6.062,6.063,259.328,228.294,228.187
0.212,19.960,6.015,6.014,259.426,228.110,228.199
0.214,20.195,5.966,5.963,259.538,227.903,228.199
0.215,20.451,5.918,5.912,259.662,227.679,228.191
0.217,20.721,5.871,5.862,259.793,227.444,228.175
0.218,20.997,5.825,5.815,259.928,227.204,228.155
0.220,21.274,5.781,5.772,260.065,226.964,228.132
0.221,21.544,5.741,5.736,260.200,226.732,228.109
0.223,21.800,5.704,5.706,260.329,226.512,228.089
0.224,22.035,5.673,5.685,260.450,226.310,228.073
0.225,22.243,5.646,5.671,260.559,226.133,228.064
0.227,22.418,5.624,5.663,260.653,225.986,228.063
0.228,22.559,5.608,5.660,260.731,225.869,228.071
0.230,22.670,5.596,5.662,260.795,225.779,228.084
0.231,22.754,5.590,5.666,260.843,225.713,228.102
0.233,22.813,5.590,5.671,260.878,225.668,228.121
0.234,22.852,5.594,5.678,260.898,225.642,228.141
0.236,22.873,5.602,5.684,260.906,225.632,228.158
0.237,22.887,5.612,5.689,260.900,225.634,228.171
0.238,22.910,5.622,5.691,260.882,225.646,228.177
0.240,22.946,5.631,5.691,260.852,225.666,228.175
0.241,22.995,5.638,5.687,260.811,225.690,228.163
0.243,23.059,5.639,5.677,260.759,225.715,228.138
0.244,23.135,5.636,5.663,260.697,225.740,228.100
0.246,23.223,5.629,5.646,260.630,225.762,228.048
0.247,23.322,5.620,5.628,260.559,225.781,227.981
0.249,23.430,5.610,5.611,260.489,225.795,227.900
0.250,23.548,5.600,5.597,260.421,225.802,227.804
0.251,23.674,5.592,5.589,260.360,225.800,227.694
0.253,23.811,5.588,5.589,260.308,225.789,227.567
0.254,23.961,5.586,5.597,260.268,225.766,227.425
0.256,24.125,5.586,5.609,260.243,225.730,227.267
0.257,24.307,5.585,5.621,260.236,225.680,227.092
0.259,24.509,5.580,5.630,260.251,225.614,226.901
0.260,24.734,5.569,5.632,260.287,225.533,226.695
0.262,24.977,5.549,5.622,260.342,225.438,226.478
0.263,25.233,5.518,5.597,260.411,225.334,226.254
0.264,25.498,5.475,5.555,260.493,225.224,226.028
0.266,25.766,5.423,5.501,260.584,225.109,225.803
0.267,26.032,5.365,5.438,260.680,224.994,225.584
0.269,26.289,5.305,5.370,260.778,224.881,225.375
0.270,26.532,5.245,5.301,260.875,224.772,225.180
0.272,26.756,5.190,5.237,260.968,224.672,225.003
0.273,26.954,5.143,5.179,261.054,224.583,224.849
0.275,27.120,5.104,5.132,261.129,224.508,224.721
0.276,27.251,5.074,5.095,261.192,224.449,224.622
0.277,27.352,5.052,5.066,261.243,224.403,224.548
0.279,27.425,5.035,5.044,261.284,224.370,224.498
0.280,27.475,5.024,5.028,261.315,224.346,224.467
0.282,27.506,5.017,5.018,261.338,224.332,224.452
0.283,27.524,5.012,5.012,261.354,224.324,224.451
0.285,27.538,5.010,5.009,261.365,224.321,224.460
0.286,27.555,5.009,5.009,261.371,224.322,224.476
0.288,27.576,5.008,5.011,261.373,224.324,224.497
0.289,27.597,5.008,5.013,261.373,224.325,224.518
0.290,27.617,5.008,5.016,261.372,224.324,224.537
0.292,27.632,5.007,5.017,261.371,224.320,224.552
0.293,27.644,5.004,5.017,261.372,224.312,224.561
0.295,27.658,4.999,5.014,261.377,224.300,224.565
0.296,27.677,4.992,5.009,261.387,224.284,224.563
0.298,27.704,4.981,5.001,261.405,224.264,224.554
0.299,27.743,4.966,4.990,261.431,224.241,224.539
0.301,27.795,4.946,4.976,261.469,224.213,224.517
0.302,27.861,4.920,4.959,261.520,224.181,224.488
0.303,27.944,4.888,4.939,261.585,224.145,224.452
0.305,28.045,4.850,4.914,261.666,224.105,224.407
0.306,28.166,4.807,4.887,261.766,224.061,224.355
0.308,28.308,4.760,4.855,261.885,224.013,224.294
0.309,28.468,4.711,4.821,262.020,223.962,224.226
0.311,28.640,4.660,4.783,262.167,223.908,224.154
0.312,28.821,4.610,4.742,262.321,223.852,224.078
0.314,29.005,4.561,4.697,262.479,223.796,224.001
0.315,29.187,4.513,4.651,262.634,223.739,223.925
0.316,29.364,4.469,4.605,262.785,223.683,223.851
0.318,29.529,4.427,4.562,262.924,223.628,223.781
0.319,29.680,4.388,4.525,263.050,223.576,223.717
0.321,29.809,4.353,4.496,263.156,223.526,223.661
0.322,29.915,4.320,4.479,263.239,223.481,223.615
0.324,29.993,4.292,4.475,263.295,223.440,223.580
0.325,30.048,4.267,4.484,263.326,223.403,223.553
0.327,30.090,4.244,4.501,263.335,223.368,223.531
0.328,30.131,4.223,4.521,263.327,223.334,223.509
0.329,30.179,4.203,4.537,263.306,223.300,223.483
0.331,30.237,4.182,4.544,263.276,223.263,223.449
0.332,30.308,4.159,4.536,263.241,223.223,223.403
0.334,30.393,4.134,4.507,263.206,223.178,223.340
0.335,30.496,4.106,4.457,263.174,223.126,223.257
0.337,30.621,4.076,4.389,263.149,223.067,223.149
0.338,30.775,4.043,4.310,263.136,222.998,223.012
0.340,30.963,4.009,4.225,263.139,222.919,222.842
0.341,31.184,3.974,4.140,263.159,222.829,222.640
0.342,31.434,3.938,4.059,263.191,222.731,222.414
0.344,31.705,3.902,3.990,263.236,222.626,222.167
0.345,31.993,3.866,3.934,263.290,222.515,221.907
0.347,32.291,3.832,3.891,263.352,222.402,221.639
0.348,32.592,3.799,3.859,263.418,222.286,221.368
0.350,32.891,3.770,3.838,263.488,222.171,221.102
0.351,33.181,3.743,3.827,263.558,222.058,220.844
0.353,33.455,3.721,3.824,263.626,221.948,220.603
0.354,33.708,3.704,3.828,263.691,221.843,220.382
0.355,33.933,3.692,3.837,263.749,221.745,220.188
0.357,34.129,3.685,3.851,263.801,221.655,220.022
0.358,34.298,3.684,3.866,263.848,221.572,219.881
0.360,34.446,3.687,3.882,263.889,221.494,219.763
0.361,34.574,3.696,3.897,263.927,221.423,219.663
0.363,34.688,3.708,3.907,263.962,221.355,219.578
0.364,34.790,3.725,3.913,263.995,221.292,219.506
0.366,34.884,3.746,3.913,264.027,221.232,219.441
0.367,34.972,3.769,3.907,264.059,221.174,219.382
0.368,35.059,3.791,3.898,264.092,221.118,219.325
0.370,35.147,3.813,3.886,264.127,221.063,219.266
0.371,35.239,3.830,3.873,264.166,221.008,219.203
0.373,35.339,3.843,3.859,264.209,220.953,219.132
0.374,35.447,3.849,3.846,264.259,220.899,219.053
0.376,35.567,3.848,3.834,264.321,220.846,218.965
0.377,35.700,3.842,3.824,264.396,220.796,218.867
0.379,35.850,3.834,3.817,264.488,220.749,218.758
0.380,36.020,3.825,3.813,264.601,220.705,218.639
0.382,36.212,3.818,3.812,264.736,220.667,218.507
0.383,36.432,3.816,3.814,264.897,220.634,218.363
0.384,36.681,3.821,3.821,265.088,220.608,218.205
0.386,36.963,3.834,3.834,265.311,220.588,218.032
0.387,37.282,3.860,3.857,265.569,220.577,217.845
0.389,37.639,3.900,3.894,265.863,220.575,217.643
0.390,38.026,3.958,3.950,266.186,220.579,217.430
0.392,38.434,4.037,4.029,266.530,220.589,217.209
0.393,38.855,4.139,4.135,266.886,220.604,216.986
0.395,39.279,4.267,4.271,267.247,220.621,216.765
0.396,39.697,4.420,4.437,267.604,220.640,216.548
0.397,40.100,4.588,4.621,267.950,220.659,216.342
0.399,40.480,4.763,4.813,268.276,220.677,216.149
0.400,40.826,4.935,5.002,268.575,220.692,215.974
0.402,41.130,5.095,5.178,268.837,220.703,215.821
0.403,41.383,5.235,5.329,269.055,220.709,215.693
0.405,41.578,5.346,5.445,269.224,220.708,215.596
0.406,41.718,5.424,5.522,269.345,220.702,215.525
0.408,41.812,5.473,5.566,269.426,220.692,215.479
0.409,41.865,5.498,5.585,269.471,220.680,215.453
0.410,41.886,5.503,5.583,269.486,220.667,215.446
0.412,41.902,5.492,5.567,269.477,220.656,215.453
0.413,41.937,5.469,5.545,269.450,220.647,215.473
0.415,41.986,5.439,5.522,269.409,220.642,215.500
0.416,42.043,5.406,5.502,269.362,220.643,215.533
0.418,42.104,5.372,5.486,269.313,220.652,215.568
0.419,42.163,5.339,5.474,269.269,220.670,215.603
0.421,42.217,5.310,5.467,269.234,220.698,215.633
0.422,42.266,5.287,5.466,269.210,220.733,215.657
0.423,42.309,5.274,5.470,269.196,220.771,215.672
0.425,42.344,5.272,5.482,269.191,220.806,215.677
0.426,42.374,5.281,5.498,269.196,220.833,215.668
0.428,42.405,5.298,5.517,269.209,220.848,215.644
0.429,42.452,5.319,5.535,269.231,220.846,215.602
0.431,42.524,5.341,5.548,269.261,220.822,215.541
0.432,42.629,5.359,5.554,269.297,220.772,215.458
0.434,42.771,5.371,5.548,269.341,220.689,215.350
0.435,42.957,5.372,5.528,269.391,220.570,215.216
0.436,43.191,5.362,5.495,269.446,220.410,215.054
0.438,43.471,5.345,5.451,269.507,220.212,214.866
0.439,43.786,5.324,5.404,269.571,219.984,214.658
0.441,44.128,5.302,5.356,269.637,219.732,214.436
0.442,44.487,5.284,5.314,269.704,219.465,214.206
0.444,44.852,5.272,5.281,269.771,219.191,213.974
0.445,45.215,5.270,5.264,269.836,218.916,213.746
0.447,45.566,5.279,5.262,269.899,218.649,213.527
0.448,45.895,5.296,5.273,269.957,218.398,213.323
0.449,46.193,5.318,5.293,270.011,218.169,213.140
0.451,46.449,5.342,5.319,270.057,217.971,212.985
0.452,46.655,5.364,5.348,270.096,217.810,212.862
0.454,46.809,5.384,5.377,270.127,217.689,212.773
0.455,46.916,5.396,5.402,270.150,217.603,212.713
0.457,46.984,5.400,5.421,270.165,217.546,212.679
0.458,47.020,5.398,5.435,270.174,217.513,212.667
0.460,47.034,5.390,5.442,270.177,217.501,212.671
0.461,47.051,5.378,5.444,270.174,217.503,212.689
0.462,47.081,5.363,5.439,270.166,217.514,212.715
0.464,47.118,5.345,5.427,270.153,217.530,212.746
0.465,47.157,5.326,5.410,270.136,217.546,212.777
0.467,47.193,5.307,5.386,270.115,217.556,212.805
0.468,47.225,5.287,5.358,270.091,217.556,212.825
0.470,47.256,5.267,5.327,270.064,217.543,212.834
0.471,47.294,5.247,5.296,270.036,217.517,212.834
0.473,47.341,5.227,5.265,270.006,217.481,212.826
0.474,47.398,5.206,5.237,269.976,217.436,212.810
0.475,47.462,5.186,5.212,269.947,217.383,212.788
0.477,47.534,5.165,5.192,269.919,217.323,212.761
0.478,47.610,5.145,5.175,269.893,217.258,212.730
0.480,47.691,5.126,5.161,269.870,217.189,212.695
0.481,47.773,5.108,5.149,269.850,217.118,212.658
0.483,47.857,5.092,5.139,269.835,217.046,212.620
0.484,47.939,5.078,5.128,269.824,216.974,212.581
0.486,48.019,5.066,5.118,269.819,216.904,212.543
0.487,48.097,5.057,5.107,269.820,216.835,212.507
0.488,48.172,5.049,5.096,269.824,216.769,212.471
0.490,48.244,5.043,5.086,269.832,216.705,212.437
0.491,48.314,5.038,5.076,269.843,216.645,212.406
0.493,48.379,5.033,5.069,269.857,216.588,212.376
0.494,48.441,5.028,5.064,269.872,216.535,212.349
0.496,48.497,5.022,5.062,269.889,216.486,212.325
0.497,48.549,5.016,5.063,269.905,216.442,212.304
0.499,48.594,5.009,5.066,269.922,216.403,212.287
0.500,48.634,5.001,5.070,269.938,216.370,212.274
0.501,48.667,4.994,5.074,269.952,216.342,212.264
0.503,48.694,4.987,5.077,269.965,216.318,212.258
0.504,48.719,4.980,5.079,269.975,216.296,212.254
0.506,48.742,4.974,5.079,269.983,216.275,212.252
0.507,48.765,4.969,5.075,269.988,216.252,212.249
0.509,48.792,4.963,5.068,269.990,216.225,212.247
0.510,48.824,4.955,5.056,269.989,216.194,212.243
0.512,48.863,4.946,5.040,269.984,216.155,212.236
0.513,48.913,4.933,5.018,269.975,216.107,212.226
0.514,48.975,4.915,4.991,269.962,216.048,212.212
0.516,49.051,4.893,4.957,269.944,215.977,212.193
0.517,49.143,4.866,4.917,269.921,215.891,212.168
0.519,49.250,4.835,4.874,269.895,215.792,212.138
0.520,49.370,4.801,4.830,269.866,215.681,212.102
0.522,49.501,4.765,4.788,269.835,215.560,212.063
0.523,49.641,4.730,4.748,269.804,215.430,212.020
0.525,49.789,4.695,4.713,269.775,215.293,211.975
0.526,49.941,4.662,4.687,269.747,215.151,211.928
0.527,50.097,4.632,4.668,269.723,215.005,211.880
0.529,50.254,4.605,4.655,269.704,214.856,211.832
0.530,50.410,4.581,4.647,269.690,214.708,211.785
0.532,50.565,4.560,4.643,269.684,214.560,211.739
0.533,50.716,4.542,4.641,269.686,214.415,211.696
0.535,50.864,4.527,4.640,269.696,214.274,211.655
0.536,51.007,4.516,4.638,269.713,214.137,211.616
0.538,51.146,4.508,4.635,269.735,214.005,211.579
0.539,51.280,4.503,4.631,269.762,213.878,211.545
0.540,51.408,4.499,4.628,269.793,213.758,211.512
0.542,51.531,4.497,4.627,269.826,213.644,211.481
0.543,51.646,4.495,4.628,269.859,213.538,211.451
0.545,51.754,4.493,4.631,269.893,213.439,211.423
0.546,51.853,4.490,4.638,269.925,213.349,211.396
0.548,51.943,4.487,4.649,269.955,213.269,211.370
0.549,52.022,4.483,4.663,269.981,213.198,211.345
0.551,52.092,4.479,4.680,270.004,213.137,211.322
0.552,52.150,4.475,4.698,270.024,213.086,211.301
0.553,52.199,4.473,4.718,270.042,213.045,211.283
0.555,52.237,4.472,4.738,270.061,213.014,211.268
0.556,52.267,4.473,4.758,270.080,212.994,211.259
0.558,52.291,4.475,4.779,270.101,212.983,211.254
0.559,52.315,4.479,4.800,270.124,212.983,211.257
0.561,52.345,4.482,4.822,270.152,212.992,211.266
0.562,52.387,4.485,4.847,270.185,213.012,211.283
0.564,52.443,4.487,4.874,270.224,213.041,211.309
0.565,52.513,4.485,4.904,270.270,213.081,211.345
0.566,52.597,4.481,4.938,270.324,213.128,211.389
0.568,52.687,4.473,4.976,270.383,213.176,211.437
0.569,52.778,4.460,5.018,270.447,213.219,211.484
0.571,52.862,4.442,5.064,270.513,213.250,211.527
0.572,52.938,4.417,5.113,270.581,213.262,211.560
0.574,53.009,4.386,5.166,270.647,213.248,211.579
0.575,53.088,4.348,5.221,270.712,213.203,211.580
0.577,53.194,4.301,5.279,270.773,213.119,211.557
0.578,53.343,4.251,5.340,270.829,212.990,211.508
0.579,53.547,4.203,5.405,270.878,212.810,211.426
0.581,53.817,4.165,5.474,270.918,212.571,211.308
0.582,54.156,4.144,5.549,270.950,212.271,211.152
0.584,54.556,4.148,5.629,270.976,211.921,210.961
0.585,55.005,4.183,5.717,270.999,211.530,210.741
0.587,55.493,4.257,5.812,271.023,211.109,210.495
0.588,56.008,4.366,5.913,271.050,210.669,210.230
0.590,56.539,4.500,6.014,271.083,210.219,209.949
