"T","Distance","Radius","FreeRadius","X","Y","Z"
0.000,0.000,1.433,1.433,221.092,188.691,180.010
0.001,0.304,1.644,1.644,221.159,188.548,180.270
0.003,0.605,1.853,1.853,221.225,188.406,180.526
0.004,0.900,2.055,2.055,221.290,188.266,180.778
0.006,1.186,2.249,2.249,221.354,188.132,181.023
0.007,1.461,2.431,2.431,221.417,188.003,181.258
0.008,1.722,2.598,2.598,221.477,187.882,181.481
0.010,1.966,2.748,2.748,221.535,187.769,181.689
0.011,2.189,2.877,2.877,221.590,187.668,181.880
0.013,2.390,2.987,2.987,221.641,187.578,182.052
0.014,2.565,3.080,3.080,221.689,187.501,182.202
0.016,2.712,3.157,3.157,221.732,187.440,182.328
0.017,2.828,3.220,3.220,221.771,187.394,182.427
0.018,2.915,3.272,3.272,221.805,187.364,182.502
0.020,2.976,3.315,3.315,221.833,187.347,182.554
0.021,3.016,3.350,3.350,221.856,187.342,182.586
0.023,3.040,3.377,3.377,221.873,187.345,182.602
0.024,3.055,3.398,3.398,221.884,187.356,182.604
0.025,3.074,3.411,3.411,221.888,187.372,182.594
0.027,3.101,3.416,3.416,221.885,187.391,182.577
0.028,3.133,3.415,3.415,221.875,187.412,182.554
0.030,3.170,3.405,3.405,221.858,187.432,182.528
0.031,3.210,3.388,3.388,221.832,187.449,182.502
0.032,3.252,3.364,3.364,221.799,187.461,182.479
0.034,3.297,3.337,3.337,221.759,187.468,182.460
0.035,3.342,3.310,3.310,221.717,187.471,182.446
0.037,3.383,3.284,3.284,221.676,187.470,182.436
0.038,3.419,3.264,3.264,221.642,187.467,182.430
0.040,3.444,3.251,3.251,221.616,187.461,182.429
0.041,3.458,3.249,3.249,221.605,187.455,182.433
0.042,3.470,3.257,3.257,221.610,187.449,182.441
0.044,3.500,3.274,3.274,221.638,187.444,182.454
0.045,3.556,3.296,3.296,221.690,187.441,182.471
0.047,3.641,3.320,3.320,221.772,187.440,182.494
0.048,3.759,3.343,3.343,221.888,187.443,182.521
0.049,3.913,3.362,3.362,222.037,187.450,182.553
0.051,4.096,3.374,3.374,222.217,187.461,182.588
0.052,4.305,3.377,3.377,222.422,187.476,182.626
0.054,4.534,3.374,3.374,222.647,187.494,182.664
0.055,4.779,3.368,3.368,222.888,187.515,182.702
0.056,5.034,3.361,3.361,223.140,187.539,182.739
0.058,5.296,3.355,3.355,223.397,187.566,182.774
0.059,5.558,3.355,3.355,223.656,187.595,182.804
0.061,5.816,3.361,3.361,223.911,187.627,182.830
0.062,6.066,3.377,3.377,224.158,187.660,182.850
0.064,6.303,3.400,3.400,224.392,187.696,182.862
0.065,6.523,3.429,3.429,224.609,187.733,182.867
0.066,6.726,3.463,3.463,224.809,187.771,182.865
0.068,6.915,3.499,3.499,224.993,187.810,182.857
0.069,7.089,3.537,3.537,225.162,187.850,182.846
0.071,7.249,3.573,3.573,225.316,187.890,182.832
0.072,7.397,3.607,3.607,225.458,187.931,182.818
0.073,7.533,3.640,3.640,225.587,187.972,182.804
0.075,7.657,3.671,3.671,225.704,188.012,182.793
0.076,7.772,3.701,3.701,225.811,188.052,182.786
0.078,7.876,3.732,3.732,225.907,188.091,182.784
0.079,7.972,3.762,3.762,225.995,188.130,182.789
0.081,8.061,3.795,3.795,226.075,188.167,182.802
0.082,8.144,3.829,3.829,226.147,188.203,182.823
0.083,8.222,3.864,3.864,226.212,188.236,182.848
0.085,8.294,3.898,3.898,226.271,188.268,182.877
0.086,8.361,3.930,3.930,226.323,188.298,182.908
0.088,8.423,3.958,3.958,226.369,188.325,182.938
0.089,8.478,3.981,3.981,226.409,188.349,182.966
0.090,8.525,3.998,3.998,226.445,188.370,182.989
0.092,8.565,4.006,4.006,226.476,188.387,183.007
0.093,8.597,4.008,4.008,226.503,188.401,183.017
0.095,8.622,4.004,4.004,226.526,188.411,183.016
0.096,8.645,3.998,3.998,226.546,188.417,183.005
0.097,8.674,3.992,3.992,226.563,188.418,182.982
0.099,8.709,3.988,3.988,226.580,188.416,182.951
0.100,8.749,3.988,3.988,226.597,188.411,182.915
0.102,8.792,3.996,3.996,226.616,188.403,182.877
0.103,8.837,4.011,4.011,226.638,188.394,182.839
0.105,8.882,4.030,4.030,226.665,188.383,182.805
0.106,8.927,4.051,4.051,226.699,188.371,182.777
0.107,8.974,4.072,4.072,226.740,188.359,182.759
0.109,9.026,4.091,4.091,226.790,188.346,182.752
0.110,9.089,4.104,4.104,226.851,188.335,182.761
0.112,9.167,4.109,4.109,226.924,188.324,182.787
0.113,9.264,4.106,4.106,227.009,188.315,182.832
0.114,9.378,4.097,4.097,227.104,188.307,182.894
0.116,9.507,4.086,4.086,227.208,188.300,182.971
0.117,9.650,4.074,4.074,227.319,188.294,183.060
0.119,9.803,4.065,4.065,227.435,188.289,183.160
0.120,9.963,4.061,4.061,227.553,188.284,183.268
0.121,10.129,4.065,4.065,227.673,188.279,183.383
0.123,10.297,4.079,4.079,227.793,188.274,183.501
0.124,10.465,4.101,4.101,227.909,188.269,183.621
0.126,10.629,4.130,4.130,228.022,188.264,183.741
0.127,10.788,4.163,4.163,228.128,188.258,183.858
0.129,10.938,4.199,4.199,228.226,188.252,183.972
0.130,11.079,4.236,4.236,228.317,188.245,184.080
0.131,11.211,4.273,4.273,228.400,188.238,184.183
0.133,11.334,4.307,4.307,228.475,188.233,184.280
0.134,11.447,4.338,4.338,228.542,188.228,184.370
0.136,11.549,4.367,4.367,228.601,188.226,184.454
0.137,11.641,4.392,4.392,228.653,188.225,184.530
0.138,11.722,4.413,4.413,228.696,188.228,184.598
0.140,11.792,4.431,4.431,228.732,188.234,184.658
0.141,11.851,4.444,4.444,228.761,188.243,184.709
0.143,11.900,4.453,4.453,228.781,188.257,184.750
0.144,11.939,4.459,4.459,228.795,188.276,184.782
0.145,11.972,4.462,4.462,228.802,188.297,184.806
0.147,12.000,4.463,4.463,228.806,188.319,184.823
0.148,12.025,4.465,4.465,228.807,188.341,184.837
0.150,12.047,4.466,4.466,228.809,188.358,184.848
0.151,12.063,4.470,4.470,228.812,188.370,184.859
0.153,12.079,4.476,4.476,228.820,188.375,184.873
0.154,12.102,4.485,4.485,228.834,188.369,184.890
0.155,12.139,4.494,4.494,228.856,188.351,184.914
0.157,12.194,4.505,4.505,228.887,188.320,184.946
0.158,12.272,4.514,4.514,228.931,188.271,184.988
0.160,12.375,4.523,4.523,228.989,188.205,185.042
0.161,12.504,4.529,4.529,229.060,188.121,185.108
0.162,12.653,4.531,4.531,229.144,188.023,185.185
0.164,12.820,4.530,4.530,229.238,187.914,185.269
0.165,13.000,4.528,4.528,229.341,187.798,185.360
0.167,13.189,4.525,4.525,229.451,187.677,185.455
0.168,13.384,4.524,4.524,229.566,187.555,185.553
0.169,13.580,4.524,4.524,229.685,187.435,185.652
0.171,13.773,4.528,4.528,229.806,187.320,185.750
0.172,13.961,4.537,4.537,229.928,187.213,185.845
0.174,14.138,4.552,4.552,230.048,187.119,185.935
0.175,14.303,4.571,4.571,230.165,187.039,186.019
0.177,14.454,4.594,4.594,230.279,186.975,186.095
0.178,14.594,4.619,4.619,230.389,186.925,186.166
0.179,14.725,4.648,4.648,230.496,186.887,186.231
0.181,14.848,4.678,4.678,230.600,186.859,186.291
0.182,14.967,4.708,4.708,230.701,186.838,186.349
0.184,15.081,4.739,4.739,230.800,186.823,186.405
0.185,15.193,4.771,4.771,230.897,186.811,186.460
0.186,15.303,4.804,4.804,230.991,186.801,186.515
0.188,15.413,4.839,4.839,231.085,186.790,186.571
0.189,15.523,4.876,4.876,231.177,186.776,186.630
0.191,15.635,4.914,4.914,231.268,186.757,186.691
0.192,15.749,4.956,4.956,231.358,186.731,186.757
0.194,15.865,5.000,5.000,231.446,186.700,186.825
0.195,15.980,5.045,5.045,231.531,186.665,186.895
0.196,16.093,5.090,5.090,231.612,186.627,186.963
0.198,16.201,5.132,5.132,231.688,186.587,187.030
0.199,16.303,5.171,5.171,231.757,186.547,187.093
0.201,16.397,5.204,5.204,231.819,186.507,187.151
0.202,16.480,5.230,5.230,231.873,186.469,187.202
0.203,16.550,5.248,5.248,231.916,186.435,187.245
0.205,16.606,5.259,5.259,231.950,186.404,187.278
0.206,16.645,5.263,5.263,231.971,186.380,187.300
0.208,16.668,5.263,5.263,231.980,186.361,187.310
0.209,16.681,5.260,5.260,231.979,186.349,187.309
0.210,16.695,5.255,5.255,231.970,186.340,187.303
0.212,16.713,5.250,5.250,231.956,186.334,187.293
0.213,16.731,5.246,5.246,231.941,186.329,187.284
0.215,16.747,5.245,5.245,231.927,186.323,187.279
0.216,16.760,5.246,5.246,231.917,186.315,187.281
0.218,16.777,5.251,5.251,231.914,186.304,187.293
0.219,16.809,5.260,5.260,231.921,186.287,187.320
0.220,16.863,5.274,5.275,231.940,186.265,187.365
0.222,16.944,5.294,5.294,231.976,186.234,187.431
0.223,17.056,5.320,5.320,232.029,186.193,187.521
0.225,17.198,5.352,5.352,232.099,186.144,187.633
0.226,17.362,5.387,5.387,232.182,186.089,187.764
0.227,17.543,5.425,5.424,232.274,186.031,187.909
0.229,17.734,5.462,5.461,232.371,185.971,188.063
0.230,17.930,5.498,5.497,232.468,185.913,188.222
0.232,18.123,5.530,5.530,232.563,185.859,188.381
0.233,18.307,5.558,5.558,232.651,185.811,188.536
0.234,18.478,5.580,5.582,232.729,185.771,188.682
0.236,18.627,5.599,5.602,232.791,185.743,188.816
0.237,18.752,5.616,5.619,232.835,185.729,188.932
0.239,18.849,5.633,5.636,232.856,185.730,189.026
0.240,18.922,5.651,5.653,232.855,185.748,189.097
0.242,18.983,5.671,5.673,232.840,185.777,189.148
0.243,19.039,5.696,5.695,232.818,185.815,189.183
0.244,19.092,5.724,5.720,232.796,185.859,189.204
0.246,19.140,5.752,5.744,232.782,185.903,189.215
0.247,19.182,5.776,5.765,232.782,185.945,189.218
0.249,19.225,5.791,5.778,232.804,185.982,189.219
0.250,19.283,5.793,5.782,232.856,186.008,189.218
0.251,19.373,5.778,5.771,232.945,186.021,189.220
0.253,19.505,5.742,5.744,233.077,186.017,189.229
0.254,19.692,5.684,5.700,233.261,185.993,189.246
0.256,19.936,5.609,5.642,233.499,185.946,189.274
0.257,20.229,5.523,5.576,233.782,185.880,189.312
0.258,20.560,5.432,5.507,234.100,185.799,189.357
0.260,20.918,5.343,5.441,234.442,185.706,189.408
0.261,21.293,5.260,5.382,234.799,185.604,189.462
0.263,21.674,5.191,5.336,235.161,185.499,189.517
0.264,22.049,5.140,5.306,235.516,185.393,189.573
0.266,22.408,5.105,5.290,235.856,185.289,189.625
0.267,22.739,5.083,5.286,236.169,185.193,189.674
0.268,23.032,5.072,5.288,236.445,185.107,189.716
0.270,23.275,5.068,5.295,236.675,185.035,189.750
0.271,23.460,5.069,5.304,236.850,184.981,189.774
0.273,23.591,5.072,5.309,236.975,184.942,189.789
0.274,23.675,5.076,5.310,237.055,184.917,189.797
0.275,23.720,5.078,5.306,237.097,184.903,189.798
0.277,23.733,5.080,5.300,237.109,184.898,189.795
0.278,23.747,5.082,5.293,237.096,184.901,189.789
0.280,23.779,5.084,5.286,237.066,184.907,189.781
0.281,23.821,5.087,5.281,237.026,184.916,189.773
0.282,23.868,5.091,5.280,236.981,184.925,189.766
0.284,23.910,5.095,5.285,236.939,184.932,189.762
0.285,23.943,5.101,5.294,236.906,184.934,189.761
0.287,23.961,5.107,5.305,236.889,184.929,189.767
0.288,23.976,5.112,5.316,236.888,184.919,189.777
0.290,24.000,5.117,5.326,236.899,184.904,189.791
0.291,24.032,5.120,5.333,236.920,184.887,189.809
0.292,24.070,5.121,5.334,236.947,184.869,189.828
0.294,24.110,5.120,5.328,236.977,184.852,189.848
0.295,24.149,5.117,5.315,237.008,184.839,189.868
0.297,24.183,5.111,5.299,237.036,184.830,189.886
0.298,24.210,5.103,5.282,237.057,184.829,189.902
0.299,24.228,5.095,5.268,237.069,184.836,189.914
0.301,24.248,5.085,5.258,237.069,184.854,189.922
0.302,24.282,5.075,5.257,237.053,184.885,189.924
0.304,24.334,5.065,5.267,237.022,184.926,189.920
0.305,24.396,5.054,5.287,236.983,184.973,189.912
0.306,24.462,5.043,5.313,236.939,185.021,189.902
0.308,24.524,5.031,5.339,236.897,185.066,189.891
0.309,24.574,5.018,5.361,236.862,185.101,189.881
0.311,24.606,5.003,5.375,236.839,185.121,189.874
0.312,24.612,4.985,5.374,236.834,185.122,189.871
0.314,24.641,4.965,5.355,236.852,185.099,189.874
0.315,24.712,4.942,5.317,236.898,185.047,189.884
0.316,24.832,4.918,5.262,236.978,184.959,189.903
0.318,25.009,4.894,5.198,237.097,184.833,189.934
0.319,25.245,4.871,5.129,237.258,184.665,189.976
0.321,25.529,4.850,5.059,237.452,184.463,190.027
0.322,25.853,4.834,4.995,237.673,184.235,190.085
0.323,26.204,4.822,4.942,237.914,183.988,190.147
0.325,26.571,4.815,4.901,238.168,183.729,190.213
0.326,26.945,4.812,4.873,238.426,183.467,190.278
0.328,27.315,4.812,4.853,238.682,183.209,190.342
0.329,27.669,4.812,4.840,238.929,182.962,190.401
0.331,27.997,4.811,4.831,239.159,182.734,190.453
0.332,28.288,4.806,4.823,239.365,182.533,190.497
0.333,28.531,4.797,4.814,239.539,182.366,190.530
0.335,28.720,4.782,4.802,239.676,182.238,190.550
0.336,28.859,4.762,4.787,239.781,182.147,190.560
0.338,28.957,4.739,4.772,239.859,182.087,190.561
0.339,29.024,4.716,4.757,239.916,182.052,190.556
0.340,29.069,4.694,4.746,239.958,182.037,190.548
0.342,29.104,4.675,4.739,239.990,182.036,190.539
0.343,29.135,4.662,4.738,240.020,182.043,190.531
0.345,29.170,4.657,4.744,240.053,182.053,190.527
0.346,29.212,4.658,4.757,240.095,182.060,190.530
0.347,29.270,4.665,4.775,240.151,182.060,190.542
0.349,29.352,4.678,4.797,240.228,182.046,190.565
0.350,29.466,4.694,4.820,240.332,182.013,190.602
0.352,29.612,4.714,4.843,240.459,181.962,190.652
0.353,29.783,4.737,4.866,240.605,181.897,190.713
0.355,29.974,4.760,4.885,240.765,181.821,190.783
0.356,30.177,4.784,4.901,240.933,181.737,190.861
0.357,30.387,4.809,4.914,241.105,181.649,190.944
0.359,30.597,4.833,4.924,241.274,181.560,191.032
0.360,30.801,4.856,4.932,241.436,181.474,191.121
0.362,30.993,4.877,4.939,241.586,181.395,191.210
0.363,31.166,4.896,4.944,241.717,181.325,191.298
0.364,31.314,4.913,4.948,241.826,181.269,191.381
0.366,31.433,4.926,4.951,241.907,181.229,191.460
0.367,31.525,4.937,4.953,241.959,181.205,191.531
0.369,31.598,4.946,4.955,241.989,181.194,191.596
0.370,31.657,4.953,4.957,242.000,181.193,191.654
0.371,31.708,4.958,4.959,241.999,181.199,191.705
0.373,31.753,4.961,4.961,241.989,181.207,191.748
0.374,31.791,4.964,4.964,241.977,181.215,191.784
0.376,31.821,4.965,4.968,241.967,181.219,191.811
0.377,31.841,4.967,4.972,241.964,181.216,191.831
0.379,31.861,4.969,4.976,241.974,181.202,191.842
0.380,31.899,4.972,4.981,242.000,181.174,191.844
0.381,31.967,4.978,4.986,242.049,181.129,191.837
0.383,32.065,4.986,4.991,242.123,181.065,191.823
0.384,32.190,4.998,4.996,242.216,180.985,191.802
0.386,32.335,5.014,5.001,242.326,180.892,191.778
0.387,32.495,5.032,5.008,242.447,180.790,191.752
0.388,32.665,5.051,5.018,242.575,180.682,191.728
0.390,32.839,5.070,5.032,242.706,180.569,191.708
0.391,33.010,5.087,5.052,242.835,180.457,191.695
0.393,33.175,5.101,5.079,242.957,180.348,191.689
0.394,33.328,5.111,5.113,243.070,180.244,191.695
0.395,33.465,5.115,5.157,243.167,180.150,191.715
0.397,33.583,5.116,5.207,243.245,180.068,191.750
0.398,33.686,5.115,5.261,243.301,180.000,191.804
0.400,33.782,5.115,5.315,243.337,179.945,191.873
0.401,33.878,5.118,5.367,243.358,179.901,191.957
0.403,33.981,5.125,5.413,243.367,179.866,192.052
0.404,34.090,5.138,5.452,243.367,179.838,192.158
0.405,34.207,5.160,5.480,243.364,179.815,192.273
0.407,34.330,5.187,5.499,243.360,179.794,192.394
0.408,34.456,5.219,5.512,243.360,179.774,192.519
0.410,34.586,5.252,5.520,243.366,179.753,192.646
0.411,34.717,5.284,5.525,243.385,179.728,192.773
0.412,34.851,5.313,5.531,243.418,179.697,192.899
0.414,34.989,5.335,5.539,243.469,179.659,193.022
0.415,35.133,5.350,5.551,243.539,179.614,193.140
0.417,35.285,5.358,5.566,243.626,179.563,193.253
0.418,35.444,5.362,5.585,243.729,179.507,193.361
0.419,35.610,5.363,5.606,243.846,179.449,193.464
0.421,35.783,5.366,5.628,243.975,179.388,193.561
0.422,35.961,5.372,5.650,244.116,179.326,193.651
0.424,36.144,5.384,5.671,244.266,179.265,193.734
0.425,36.330,5.404,5.689,244.425,179.205,193.811
0.427,36.518,5.432,5.706,244.591,179.148,193.880
0.428,36.708,5.468,5.721,244.763,179.095,193.940
0.429,36.897,5.509,5.736,244.938,179.048,193.993
0.431,37.086,5.555,5.752,245.117,179.006,194.037
0.432,37.276,5.604,5.768,245.299,178.967,194.074
0.434,37.466,5.655,5.787,245.483,178.930,194.104
0.435,37.657,5.706,5.809,245.669,178.894,194.128
0.436,37.849,5.756,5.834,245.857,178.857,194.145
0.438,38.042,5.804,5.865,246.045,178.817,194.158
0.439,38.237,5.850,5.904,246.235,178.772,194.166
0.441,38.433,5.891,5.952,246.424,178.722,194.170
0.442,38.630,5.928,6.010,246.613,178.665,194.171
0.444,38.830,5.958,6.080,246.802,178.600,194.168
0.445,39.032,5.982,6.164,246.989,178.523,194.164
0.446,39.237,5.998,6.261,247.175,178.437,194.158
0.448,39.442,6.009,6.367,247.356,178.343,194.150
0.449,39.644,6.016,6.476,247.532,178.243,194.142
0.451,39.841,6.021,6.583,247.699,178.140,194.132
0.452,40.030,6.027,6.684,247.858,178.037,194.122
0.453,40.208,6.035,6.773,248.004,177.936,194.112
0.455,40.372,6.047,6.846,248.137,177.840,194.102
0.456,40.520,6.064,6.900,248.255,177.751,194.092
0.458,40.649,6.084,6.937,248.356,177.672,194.083
0.459,40.754,6.106,6.960,248.437,177.605,194.074
0.460,40.834,6.128,6.973,248.497,177.553,194.067
0.462,40.887,6.149,6.977,248.536,177.517,194.061
0.463,40.918,6.167,6.977,248.556,177.495,194.057
0.465,40.930,6.179,6.975,248.563,177.485,194.054
0.466,40.934,6.186,6.974,248.560,177.483,194.054
0.468,40.944,6.189,6.974,248.551,177.487,194.056
0.469,40.957,6.189,6.975,248.541,177.495,194.060
0.470,40.971,6.189,6.976,248.533,177.503,194.067
0.472,40.982,6.191,6.977,248.533,177.510,194.077
0.473,41.000,6.196,6.979,248.544,177.511,194.091
0.475,41.031,6.207,6.979,248.571,177.505,194.107
0.476,41.084,6.226,6.979,248.617,177.489,194.127
0.477,41.163,6.251,6.978,248.686,177.461,194.151
0.479,41.264,6.283,6.975,248.776,177.421,194.177
0.480,41.385,6.320,6.969,248.883,177.372,194.207
0.482,41.521,6.360,6.960,249.002,177.317,194.237
0.483,41.665,6.404,6.947,249.129,177.256,194.269
0.484,41.815,6.450,6.929,249.261,177.192,194.301
0.486,41.965,6.496,6.906,249.393,177.128,194.332
0.487,42.109,6.543,6.879,249.520,177.066,194.362
0.489,42.245,6.588,6.849,249.639,177.007,194.390
0.490,42.366,6.630,6.819,249.745,176.955,194.416
0.492,42.468,6.668,6.790,249.834,176.910,194.437
0.493,42.546,6.700,6.764,249.902,176.876,194.455
0.494,42.601,6.726,6.742,249.950,176.852,194.468
0.496,42.635,6.743,6.726,249.979,176.837,194.477
0.497,42.652,6.753,6.717,249.993,176.830,194.483
0.499,42.656,6.757,6.713,249.993,176.829,194.487
0.500,42.666,6.755,6.713,249.984,176.833,194.488
0.501,42.685,6.750,6.716,249.967,176.842,194.487
0.503,42.709,6.743,6.721,249.946,176.853,194.484
0.504,42.736,6.734,6.727,249.923,176.865,194.481
0.506,42.762,6.727,6.732,249.900,176.877,194.477
0.507,42.785,6.720,6.736,249.880,176.889,194.472
0.508,42.801,6.715,6.739,249.867,176.897,194.469
0.510,42.810,6.711,6.741,249.861,176.903,194.466
0.511,42.814,6.708,6.742,249.863,176.906,194.463
0.513,42.822,6.706,6.742,249.870,176.907,194.461
0.514,42.835,6.705,6.741,249.883,176.906,194.458
0.516,42.854,6.705,6.739,249.902,176.904,194.456
0.517,42.878,6.706,6.736,249.925,176.901,194.454
0.518,42.905,6.707,6.732,249.952,176.897,194.452
0.520,42.936,6.708,6.729,249.982,176.893,194.449
0.521,42.969,6.708,6.725,250.016,176.890,194.446
0.523,43.005,6.706,6.723,250.051,176.887,194.442
0.524,43.042,6.703,6.723,250.088,176.886,194.437
0.525,43.081,6.697,6.724,250.126,176.886,194.432
0.527,43.119,6.689,6.727,250.164,176.888,194.425
0.528,43.156,6.680,6.732,250.200,176.890,194.418
0.530,43.191,6.669,6.737,250.234,176.892,194.410
0.531,43.222,6.659,6.741,250.264,176.895,194.401
0.532,43.249,6.650,6.744,250.289,176.896,194.391
0.534,43.271,6.642,6.746,250.308,176.897,194.380
0.535,43.288,6.638,6.744,250.320,176.896,194.369
0.537,43.301,6.638,6.738,250.324,176.894,194.357
0.538,43.316,6.641,6.731,250.318,176.889,194.344
0.540,43.338,6.646,6.723,250.302,176.882,194.330
0.541,43.371,6.654,6.716,250.274,176.871,194.316
0.542,43.409,6.663,6.713,250.241,176.858,194.302
0.544,43.449,6.674,6.715,250.208,176.842,194.288
0.545,43.483,6.685,6.723,250.181,176.823,194.276
0.547,43.510,6.695,6.739,250.168,176.802,194.265
0.548,43.535,6.701,6.758,250.174,176.780,194.256
0.549,43.575,6.698,6.773,250.205,176.756,194.250
0.551,43.644,6.681,6.777,250.269,176.730,194.248
0.552,43.749,6.645,6.763,250.370,176.704,194.251
0.554,43.898,6.586,6.724,250.517,176.676,194.258
0.555,44.099,6.498,6.654,250.715,176.648,194.270
0.556,44.355,6.378,6.545,250.970,176.620,194.289
0.558,44.665,6.228,6.401,251.277,176.591,194.312
0.559,45.016,6.057,6.230,251.626,176.563,194.340
0.561,45.400,5.873,6.042,252.007,176.536,194.371
0.562,45.804,5.683,5.844,252.409,176.509,194.403
0.564,46.220,5.496,5.645,252.823,176.484,194.436
0.565,46.635,5.320,5.454,253.237,176.461,194.468
0.566,47.041,5.163,5.279,253.640,176.440,194.497
0.568,47.425,5.028,5.125,254.024,176.421,194.523
0.569,47.779,4.913,4.990,254.376,176.405,194.545
0.571,48.090,4.818,4.875,254.687,176.392,194.560
0.572,48.350,4.740,4.779,254.946,176.382,194.568
0.573,48.556,4.678,4.700,255.153,176.376,194.567
0.575,48.718,4.631,4.638,255.314,176.374,194.557
