"T","Distance","Radius","FreeRadius","X","Y","Z"
0.000,0.000,1.539,1.539,252.417,225.362,244.772
0.001,0.071,1.548,1.548,252.446,225.425,244.755
0.003,0.142,1.556,1.556,252.473,225.488,244.738
0.004,0.210,1.563,1.563,252.495,225.549,244.718
0.005,0.277,1.568,1.568,252.511,225.610,244.697
0.007,0.341,1.571,1.571,252.517,225.670,244.673
0.008,0.406,1.571,1.571,252.511,225.729,244.645
0.009,0.474,1.567,1.567,252.492,225.785,244.612
0.011,0.550,1.560,1.560,252.456,225.839,244.574
0.012,0.637,1.549,1.549,252.402,225.891,244.530
0.014,0.740,1.539,1.539,252.326,225.940,244.479
0.015,0.864,1.533,1.533,252.228,225.987,244.421
0.016,1.010,1.535,1.535,252.104,226.029,244.354
0.018,1.179,1.547,1.547,251.957,226.068,244.281
0.019,1.368,1.573,1.573,251.789,226.100,244.201
0.020,1.573,1.616,1.616,251.603,226.126,244.118
0.022,1.791,1.679,1.679,251.403,226.144,244.033
0.023,2.020,1.757,1.757,251.191,226.152,243.947
0.024,2.257,1.848,1.848,250.970,226.150,243.862
0.026,2.498,1.948,1.948,250.744,226.135,243.780
0.027,2.741,2.052,2.052,250.515,226.108,243.703
0.028,2.984,2.157,2.157,250.287,226.066,243.631
0.030,3.225,2.259,2.259,250.061,226.008,243.568
0.031,3.463,2.353,2.353,249.842,225.934,243.514
0.032,3.697,2.440,2.440,249.632,225.843,243.469
0.034,3.926,2.519,2.519,249.430,225.739,243.434
0.035,4.152,2.591,2.591,249.238,225.623,243.408
0.036,4.373,2.657,2.657,249.057,225.498,243.390
0.038,4.587,2.717,2.717,248.887,225.367,243.381
0.039,4.795,2.773,2.773,248.730,225.232,243.379
0.041,4.993,2.825,2.825,248.586,225.095,243.384
0.042,5.181,2.874,2.874,248.457,224.959,243.395
0.043,5.358,2.921,2.921,248.342,224.826,243.413
0.045,5.521,2.964,2.964,248.244,224.698,243.436
0.046,5.669,3.005,3.005,248.162,224.578,243.465
0.047,5.802,3.045,3.045,248.097,224.467,243.498
0.049,5.923,3.082,3.082,248.047,224.363,243.534
0.050,6.035,3.118,3.118,248.008,224.265,243.573
0.051,6.141,3.153,3.153,247.979,224.171,243.612
0.053,6.242,3.187,3.187,247.957,224.080,243.651
0.054,6.341,3.221,3.221,247.940,223.990,243.688
0.055,6.438,3.255,3.255,247.926,223.900,243.723
0.057,6.536,3.289,3.289,247.912,223.809,243.754
0.058,6.635,3.324,3.324,247.896,223.714,243.779
0.059,6.739,3.361,3.361,247.877,223.614,243.799
0.061,6.849,3.400,3.400,247.850,223.508,243.811
0.062,6.966,3.441,3.441,247.816,223.396,243.815
0.064,7.091,3.483,3.483,247.775,223.278,243.811
0.065,7.222,3.528,3.528,247.728,223.156,243.802
0.066,7.355,3.573,3.573,247.678,223.034,243.787
0.068,7.488,3.619,3.619,247.626,222.913,243.769
0.069,7.620,3.666,3.666,247.572,222.794,243.748
0.070,7.747,3.713,3.713,247.520,222.681,243.725
0.072,7.867,3.759,3.759,247.469,222.574,243.701
0.073,7.978,3.804,3.804,247.423,222.476,243.678
0.074,8.076,3.847,3.847,247.382,222.390,243.657
0.076,8.159,3.888,3.888,247.347,222.316,243.638
0.077,8.226,3.925,3.925,247.321,222.257,243.623
0.078,8.276,3.958,3.958,247.301,222.212,243.611
0.080,8.313,3.985,3.985,247.289,222.178,243.603
0.081,8.339,4.006,4.006,247.281,222.154,243.598
0.082,8.355,4.021,4.021,247.278,222.139,243.595
0.084,8.364,4.030,4.030,247.278,222.129,243.595
0.085,8.370,4.035,4.035,247.280,222.125,243.597
0.086,8.376,4.036,4.036,247.284,222.123,243.601
0.088,8.382,4.036,4.036,247.287,222.121,243.606
0.089,8.390,4.034,4.034,247.290,222.119,243.613
0.091,8.398,4.032,4.032,247.291,222.114,243.620
0.092,8.411,4.032,4.032,247.289,222.105,243.628
0.093,8.428,4.032,4.032,247.284,222.091,243.637
0.095,8.449,4.034,4.034,247.276,222.074,243.646
0.096,8.476,4.036,4.036,247.266,222.052,243.657
0.097,8.506,4.039,4.039,247.252,222.028,243.669
0.099,8.540,4.042,4.042,247.237,222.001,243.682
0.100,8.577,4.044,4.044,247.219,221.972,243.697
0.101,8.617,4.046,4.046,247.199,221.941,243.714
0.103,8.659,4.047,4.047,247.178,221.910,243.733
0.104,8.704,4.048,4.048,247.154,221.878,243.754
0.105,8.751,4.047,4.047,247.129,221.846,243.777
0.107,8.799,4.046,4.046,247.103,221.815,243.803
0.108,8.849,4.045,4.045,247.076,221.785,243.832
0.109,8.901,4.043,4.043,247.047,221.755,243.863
0.111,8.954,4.041,4.041,247.018,221.725,243.897
0.112,9.009,4.038,4.038,246.989,221.696,243.932
0.114,9.066,4.035,4.035,246.958,221.666,243.970
0.115,9.124,4.032,4.032,246.928,221.635,244.009
0.116,9.184,4.029,4.029,246.898,221.604,244.050
0.118,9.245,4.025,4.025,246.867,221.571,244.092
0.119,9.308,4.022,4.022,246.837,221.538,244.135
0.120,9.372,4.019,4.019,246.808,221.502,244.180
0.122,9.437,4.016,4.016,246.779,221.465,244.225
0.123,9.504,4.014,4.014,246.751,221.426,244.271
0.124,9.570,4.012,4.012,246.724,221.386,244.317
0.126,9.637,4.011,4.011,246.698,221.345,244.362
0.127,9.702,4.010,4.010,246.672,221.304,244.407
0.128,9.766,4.009,4.009,246.648,221.263,244.450
0.130,9.828,4.009,4.009,246.625,221.224,244.491
0.131,9.886,4.010,4.010,246.603,221.186,244.529
0.132,9.940,4.012,4.012,246.582,221.151,244.565
0.134,9.990,4.015,4.015,246.562,221.119,244.597
0.135,10.034,4.017,4.017,246.544,221.090,244.625
0.136,10.072,4.021,4.021,246.527,221.066,244.649
0.138,10.104,4.024,4.024,246.511,221.046,244.668
0.139,10.130,4.028,4.028,246.497,221.030,244.683
0.141,10.150,4.031,4.031,246.484,221.019,244.694
0.142,10.165,4.034,4.034,246.474,221.010,244.701
0.143,10.176,4.036,4.036,246.466,221.005,244.706
0.145,10.183,4.038,4.038,246.460,221.002,244.708
0.146,10.186,4.039,4.039,246.457,221.001,244.709
0.147,10.187,4.039,4.039,246.457,221.001,244.708
0.149,10.191,4.038,4.038,246.460,221.003,244.707
0.150,10.198,4.035,4.035,246.467,221.006,244.706
0.151,10.209,4.030,4.030,246.477,221.008,244.704
0.153,10.223,4.023,4.023,246.491,221.011,244.704
0.154,10.239,4.015,4.015,246.507,221.013,244.705
0.155,10.256,4.006,4.006,246.524,221.015,244.706
0.157,10.272,3.996,3.996,246.540,221.017,244.707
0.158,10.286,3.987,3.987,246.553,221.018,244.708
0.159,10.295,3.980,3.980,246.562,221.018,244.709
0.161,10.298,3.973,3.973,246.565,221.018,244.710
0.162,10.303,3.970,3.970,246.560,221.016,244.710
0.164,10.317,3.968,3.968,246.546,221.014,244.710
0.165,10.342,3.968,3.968,246.521,221.011,244.708
0.166,10.380,3.969,3.969,246.484,221.007,244.705
0.168,10.433,3.969,3.969,246.432,221.002,244.701
0.169,10.499,3.968,3.968,246.366,220.994,244.695
0.170,10.578,3.965,3.965,246.288,220.981,244.689
0.172,10.668,3.960,3.960,246.201,220.963,244.682
0.173,10.768,3.950,3.950,246.105,220.935,244.676
0.174,10.877,3.936,3.936,246.003,220.898,244.671
0.176,10.994,3.915,3.916,245.896,220.848,244.667
0.177,11.121,3.888,3.889,245.787,220.784,244.665
0.178,11.257,3.853,3.854,245.677,220.704,244.665
0.180,11.404,3.809,3.810,245.568,220.605,244.667
0.181,11.563,3.756,3.756,245.463,220.487,244.674
0.182,11.736,3.691,3.691,245.362,220.346,244.683
0.184,11.926,3.617,3.616,245.267,220.183,244.697
0.185,12.131,3.537,3.536,245.177,219.998,244.715
0.186,12.353,3.457,3.456,245.092,219.795,244.735
0.188,12.589,3.380,3.378,245.012,219.574,244.759
0.189,12.840,3.310,3.309,244.936,219.336,244.785
0.191,13.104,3.253,3.252,244.864,219.084,244.814
0.192,13.380,3.212,3.212,244.796,218.818,244.844
0.193,13.666,3.190,3.192,244.731,218.541,244.876
0.195,13.961,3.189,3.192,244.669,218.254,244.909
0.196,14.265,3.207,3.211,244.610,217.959,244.943
0.197,14.574,3.244,3.248,244.553,217.656,244.978
0.199,14.888,3.298,3.303,244.498,217.350,245.013
0.200,15.202,3.369,3.373,244.445,217.042,245.048
0.201,15.513,3.457,3.459,244.396,216.737,245.083
0.203,15.816,3.560,3.558,244.349,216.439,245.117
0.204,16.109,3.675,3.668,244.306,216.152,245.151
0.205,16.385,3.797,3.785,244.267,215.880,245.184
0.207,16.643,3.919,3.902,244.232,215.627,245.216
0.208,16.878,4.035,4.017,244.202,215.396,245.246
0.209,17.086,4.140,4.123,244.177,215.192,245.275
0.211,17.262,4.227,4.216,244.157,215.018,245.302
0.212,17.405,4.291,4.292,244.143,214.879,245.328
0.214,17.510,4.328,4.346,244.135,214.776,245.351
0.215,17.582,4.341,4.380,244.132,214.707,245.370
0.216,17.626,4.336,4.398,244.131,214.666,245.386
0.218,17.646,4.317,4.402,244.132,214.650,245.398
0.219,17.653,4.290,4.396,244.133,214.653,245.403
0.220,17.671,4.259,4.381,244.132,214.671,245.403
0.222,17.700,4.231,4.361,244.128,214.700,245.396
0.223,17.738,4.209,4.339,244.120,214.734,245.380
0.224,17.783,4.196,4.317,244.106,214.769,245.356
0.226,17.834,4.192,4.296,244.084,214.800,245.323
0.227,17.892,4.195,4.278,244.053,214.824,245.279
0.228,17.962,4.205,4.265,244.012,214.835,245.225
0.230,18.043,4.221,4.258,243.960,214.832,245.162
0.231,18.137,4.243,4.258,243.900,214.816,245.092
0.232,18.241,4.269,4.268,243.833,214.788,245.018
0.234,18.354,4.299,4.287,243.758,214.748,244.943
0.235,18.474,4.331,4.315,243.679,214.695,244.869
0.236,18.601,4.364,4.350,243.595,214.631,244.800
0.238,18.732,4.395,4.389,243.508,214.555,244.736
0.239,18.868,4.424,4.431,243.419,214.468,244.682
0.241,19.007,4.448,4.474,243.329,214.371,244.640
0.242,19.150,4.467,4.516,243.240,214.263,244.612
0.243,19.297,4.477,4.555,243.152,214.145,244.600
0.245,19.451,4.480,4.590,243.065,214.019,244.605
0.246,19.611,4.477,4.621,242.978,213.886,244.623
0.247,19.777,4.470,4.649,242.888,213.749,244.651
0.249,19.948,4.460,4.672,242.796,213.609,244.688
0.250,20.124,4.449,4.692,242.699,213.469,244.729
0.251,20.302,4.438,4.708,242.595,213.331,244.772
0.253,20.482,4.429,4.720,242.484,213.196,244.815
0.254,20.662,4.424,4.727,242.364,213.068,244.854
0.255,20.843,4.422,4.732,242.233,212.947,244.887
0.257,21.026,4.424,4.733,242.090,212.836,244.911
0.258,21.211,4.429,4.732,241.933,212.738,244.923
0.259,21.401,4.438,4.729,241.764,212.652,244.922
0.261,21.596,4.450,4.725,241.584,212.577,244.910
0.262,21.794,4.465,4.721,241.398,212.513,244.888
0.264,21.995,4.484,4.716,241.207,212.457,244.859
0.265,22.195,4.507,4.712,241.016,212.410,244.823
0.266,22.393,4.531,4.708,240.827,212.368,244.783
0.268,22.585,4.556,4.705,240.643,212.331,244.741
0.269,22.769,4.582,4.704,240.468,212.298,244.697
0.270,22.941,4.608,4.704,240.304,212.268,244.654
0.272,23.099,4.632,4.707,240.154,212.238,244.613
0.273,23.239,4.655,4.712,240.022,212.208,244.577
0.274,23.360,4.674,4.720,239.910,212.177,244.546
0.276,23.463,4.691,4.730,239.815,212.145,244.520
0.277,23.550,4.706,4.740,239.738,212.112,244.498
0.278,23.623,4.718,4.751,239.675,212.080,244.480
0.280,23.683,4.727,4.761,239.625,212.049,244.466
0.281,23.733,4.735,4.768,239.587,212.018,244.455
0.282,23.775,4.740,4.774,239.559,211.989,244.447
0.284,23.809,4.744,4.776,239.539,211.962,244.441
0.285,23.837,4.746,4.774,239.526,211.937,244.437
0.286,23.861,4.747,4.770,239.517,211.915,244.434
0.288,23.880,4.747,4.765,239.512,211.897,244.432
0.289,23.895,4.746,4.758,239.510,211.882,244.430
0.291,23.907,4.745,4.752,239.508,211.871,244.428
0.292,23.915,4.744,4.746,239.508,211.862,244.427
0.293,23.921,4.743,4.743,239.509,211.856,244.425
0.295,23.926,4.743,4.741,239.510,211.852,244.424
0.296,23.930,4.743,4.741,239.513,211.849,244.423
0.297,23.934,4.744,4.742,239.516,211.847,244.421
0.299,23.937,4.745,4.743,239.519,211.846,244.419
0.300,23.941,4.745,4.745,239.522,211.845,244.418
0.301,23.945,4.746,4.746,239.525,211.843,244.415
0.303,23.950,4.746,4.746,239.527,211.840,244.413
0.304,23.955,4.746,4.745,239.529,211.836,244.409
0.305,23.962,4.745,4.742,239.531,211.831,244.406
0.307,23.971,4.743,4.739,239.532,211.823,244.401
0.308,23.982,4.740,4.734,239.533,211.813,244.396
0.309,23.995,4.735,4.729,239.535,211.802,244.390
0.311,24.011,4.729,4.724,239.537,211.788,244.384
0.312,24.029,4.721,4.718,239.540,211.771,244.376
0.314,24.050,4.711,4.713,239.544,211.753,244.367
0.315,24.075,4.699,4.708,239.549,211.731,244.357
0.316,24.102,4.685,4.703,239.556,211.706,244.347
0.318,24.133,4.670,4.697,239.564,211.679,244.334
0.319,24.168,4.655,4.691,239.574,211.648,244.321
0.320,24.207,4.640,4.684,239.586,211.614,244.306
0.322,24.250,4.625,4.675,239.598,211.577,244.291
0.323,24.296,4.612,4.664,239.609,211.535,244.275
0.324,24.346,4.600,4.652,239.619,211.489,244.258
0.326,24.400,4.589,4.637,239.626,211.438,244.241
0.327,24.458,4.578,4.618,239.629,211.383,244.224
0.328,24.521,4.564,4.596,239.626,211.322,244.208
0.330,24.590,4.547,4.569,239.618,211.255,244.192
0.331,24.665,4.524,4.537,239.603,211.183,244.177
0.332,24.749,4.495,4.500,239.579,211.104,244.162
0.334,24.841,4.458,4.456,239.546,211.019,244.150
0.335,24.942,4.412,4.406,239.504,210.927,244.138
0.336,25.054,4.361,4.352,239.455,210.827,244.128
0.338,25.175,4.304,4.295,239.401,210.719,244.119
0.339,25.306,4.245,4.237,239.345,210.602,244.111
0.341,25.446,4.184,4.179,239.288,210.474,244.104
0.342,25.595,4.125,4.122,239.232,210.336,244.098
0.343,25.753,4.068,4.068,239.181,210.187,244.093
0.345,25.921,4.016,4.019,239.136,210.025,244.089
0.346,26.099,3.969,3.975,239.099,209.850,244.085
0.347,26.290,3.927,3.936,239.073,209.662,244.081
0.349,26.493,3.891,3.903,239.060,209.459,244.078
0.350,26.710,3.859,3.875,239.060,209.242,244.076
0.351,26.938,3.833,3.853,239.073,209.014,244.073
0.353,27.174,3.812,3.837,239.095,208.779,244.069
0.354,27.414,3.796,3.828,239.123,208.541,244.065
0.355,27.653,3.786,3.824,239.156,208.305,244.060
0.357,27.888,3.780,3.825,239.191,208.072,244.053
0.358,28.114,3.779,3.830,239.225,207.849,244.044
0.359,28.328,3.780,3.836,239.255,207.637,244.032
0.361,28.525,3.783,3.843,239.280,207.443,244.018
0.362,28.701,3.788,3.850,239.297,207.268,244.001
0.364,28.853,3.794,3.855,239.302,207.117,243.981
0.365,28.979,3.800,3.856,239.295,206.994,243.957
0.366,29.085,3.806,3.855,239.275,206.894,243.929
0.368,29.176,3.810,3.850,239.244,206.814,243.896
0.369,29.262,3.813,3.843,239.204,206.749,243.859
0.370,29.346,3.813,3.833,239.155,206.694,243.816
0.372,29.434,3.809,3.820,239.100,206.646,243.768
0.373,29.529,3.801,3.805,239.039,206.598,243.714
0.374,29.631,3.789,3.787,238.975,206.547,243.653
0.376,29.743,3.772,3.768,238.907,206.489,243.586
0.377,29.866,3.755,3.750,238.838,206.418,243.512
0.378,30.004,3.740,3.735,238.770,206.329,243.430
0.380,30.161,3.729,3.725,238.703,206.220,243.341
0.381,30.334,3.725,3.724,238.638,206.091,243.245
0.382,30.521,3.732,3.732,238.575,205.946,243.145
0.384,30.718,3.752,3.752,238.515,205.789,243.042
0.385,30.921,3.787,3.786,238.457,205.625,242.939
0.386,31.125,3.834,3.831,238.402,205.457,242.837
0.388,31.326,3.889,3.883,238.349,205.290,242.738
0.389,31.519,3.946,3.939,238.299,205.129,242.645
0.391,31.701,4.003,3.995,238.252,204.976,242.559
0.392,31.865,4.054,4.047,238.208,204.837,242.482
0.393,32.009,4.095,4.092,238.167,204.715,242.417
0.395,32.128,4.121,4.125,238.130,204.615,242.365
0.396,32.222,4.133,4.147,238.095,204.536,242.326
0.397,32.295,4.133,4.160,238.064,204.476,242.299
0.399,32.352,4.125,4.164,238.034,204.430,242.282
0.400,32.398,4.113,4.164,238.006,204.395,242.274
0.401,32.437,4.099,4.160,237.980,204.366,242.272
0.403,32.474,4.087,4.155,237.954,204.341,242.275
0.404,32.511,4.080,4.152,237.929,204.314,242.281
0.405,32.552,4.082,4.151,237.904,204.282,242.288
0.407,32.601,4.092,4.154,237.878,204.241,242.295
0.408,32.661,4.108,4.161,237.851,204.188,242.300
0.409,32.736,4.130,4.172,237.823,204.118,242.301
0.411,32.828,4.156,4.187,237.793,204.031,242.298
0.412,32.936,4.185,4.206,237.761,203.928,242.290
0.414,33.057,4.216,4.230,237.728,203.813,242.278
0.415,33.187,4.249,4.258,237.694,203.688,242.262
0.416,33.324,4.281,4.290,237.658,203.558,242.243
0.418,33.464,4.312,4.325,237.621,203.424,242.221
0.419,33.605,4.343,4.362,237.583,203.290,242.197
0.420,33.744,4.372,4.400,237.545,203.159,242.170
0.422,33.878,4.399,4.437,237.505,203.034,242.143
0.423,34.004,4.423,4.472,237.465,202.918,242.114
0.424,34.120,4.444,4.504,237.424,202.815,242.084
0.426,34.223,4.461,4.533,237.384,202.725,242.054
0.427,34.314,4.475,4.558,237.342,202.649,242.024
0.428,34.395,4.486,4.578,237.301,202.586,241.995
0.430,34.468,4.494,4.594,237.259,202.533,241.966
0.431,34.534,4.501,4.605,237.217,202.491,241.938
0.432,34.594,4.506,4.611,237.175,202.457,241.912
0.434,34.650,4.510,4.613,237.133,202.430,241.887
0.435,34.701,4.514,4.610,237.091,202.410,241.865
0.436,34.750,4.517,4.602,237.049,202.394,241.845
0.438,34.797,4.519,4.590,237.007,202.382,241.828
0.439,34.842,4.521,4.576,236.965,202.373,241.815
0.441,34.886,4.522,4.561,236.923,202.365,241.804
0.442,34.931,4.522,4.545,236.880,202.355,241.797
0.443,34.980,4.520,4.530,236.834,202.341,241.793
0.445,35.035,4.518,4.517,236.782,202.321,241.790
0.446,35.101,4.514,4.506,236.724,202.291,241.790
0.447,35.180,4.509,4.498,236.657,202.248,241.791
0.449,35.276,4.504,4.492,236.580,202.191,241.793
0.450,35.392,4.501,4.490,236.491,202.117,241.796
0.451,35.533,4.499,4.491,236.387,202.022,241.798
0.453,35.700,4.500,4.496,236.268,201.904,241.801
0.454,35.899,4.504,4.503,236.131,201.760,241.802
0.455,36.131,4.513,4.515,235.976,201.588,241.802
0.457,36.393,4.526,4.530,235.803,201.390,241.800
0.458,36.680,4.544,4.549,235.618,201.171,241.798
0.459,36.984,4.566,4.572,235.425,200.936,241.793
0.461,37.299,4.594,4.598,235.229,200.690,241.787
0.462,37.616,4.625,4.629,235.036,200.438,241.780
0.464,37.931,4.662,4.664,234.849,200.185,241.771
0.465,38.235,4.703,4.703,234.673,199.937,241.760
0.466,38.523,4.749,4.746,234.514,199.698,241.748
0.468,38.787,4.798,4.792,234.375,199.473,241.735
0.469,39.022,4.849,4.841,234.262,199.269,241.720
0.470,39.221,4.902,4.892,234.179,199.088,241.703
0.472,39.385,4.954,4.945,234.127,198.933,241.686
0.473,39.522,5.005,4.998,234.102,198.800,241.668
0.474,39.638,5.053,5.051,234.101,198.685,241.650
0.476,39.742,5.098,5.104,234.120,198.584,241.634
0.477,39.841,5.139,5.155,234.154,198.493,241.621
0.478,39.939,5.177,5.205,234.200,198.407,241.610
0.480,40.038,5.211,5.253,234.254,198.323,241.603
0.481,40.142,5.242,5.299,234.311,198.237,241.601
0.482,40.251,5.270,5.343,234.369,198.145,241.604
0.484,40.367,5.295,5.384,234.423,198.042,241.614
0.485,40.494,5.318,5.421,234.469,197.925,241.632
0.486,40.634,5.339,5.456,234.504,197.792,241.657
0.488,40.786,5.358,5.486,234.531,197.646,241.688
0.489,40.947,5.376,5.512,234.549,197.490,241.724
0.491,41.115,5.392,5.535,234.561,197.327,241.764
0.492,41.286,5.408,5.552,234.567,197.162,241.807
0.493,41.457,5.423,5.565,234.569,196.997,241.852
0.495,41.624,5.437,5.572,234.568,196.836,241.896
0.496,41.784,5.452,5.575,234.567,196.682,241.939
0.497,41.932,5.466,5.573,234.564,196.539,241.980
0.499,42.066,5.481,5.568,234.564,196.410,242.016
0.500,42.182,5.495,5.561,234.565,196.299,242.048
0.501,42.276,5.509,5.554,234.571,196.208,242.074
0.503,42.351,5.522,5.548,234.579,196.137,242.094
0.504,42.408,5.535,5.544,234.589,196.083,242.109
0.505,42.450,5.547,5.544,234.601,196.044,242.120
0.507,42.478,5.558,5.549,234.613,196.019,242.127
0.508,42.496,5.568,5.557,234.624,196.007,242.130
0.509,42.506,5.576,5.566,234.635,196.004,242.131
0.511,42.516,5.583,5.575,234.643,196.010,242.131
0.512,42.530,5.586,5.582,234.647,196.023,242.129
0.514,42.547,5.587,5.585,234.648,196.040,242.126
0.515,42.568,5.584,5.584,234.644,196.061,242.124
0.516,42.592,5.578,5.577,234.635,196.082,242.122
0.518,42.616,5.569,5.564,234.621,196.103,242.120
0.519,42.640,5.558,5.549,234.605,196.119,242.119
0.520,42.659,5.546,5.534,234.589,196.130,242.118
0.522,42.674,5.534,5.520,234.574,196.131,242.117
0.523,42.688,5.523,5.511,234.563,196.122,242.115
0.524,42.712,5.515,5.508,234.558,196.099,242.112
0.526,42.751,5.511,5.515,234.561,196.060,242.108
0.527,42.810,5.510,5.530,234.574,196.003,242.103
0.528,42.892,5.513,5.554,234.598,195.924,242.096
0.530,43.002,5.519,5.583,234.637,195.822,242.088
0.531,43.141,5.529,5.616,234.691,195.695,242.077
0.532,43.309,5.541,5.651,234.760,195.543,242.064
0.534,43.499,5.556,5.686,234.841,195.371,242.050
0.535,43.706,5.573,5.719,234.932,195.185,242.035
0.536,43.924,5.591,5.747,235.028,194.990,242.019
0.538,44.148,5.611,5.772,235.127,194.789,242.004
0.539,44.372,5.630,5.792,235.226,194.589,241.990
0.541,44.590,5.647,5.809,235.322,194.394,241.977
0.542,44.797,5.662,5.821,235.412,194.208,241.966
0.543,44.986,5.673,5.830,235.493,194.037,241.957
0.545,45.153,5.678,5.836,235.562,193.885,241.952
0.546,45.291,5.677,5.839,235.615,193.758,241.950
0.547,45.399,5.670,5.839,235.653,193.657,241.952
0.549,45.479,5.657,5.837,235.677,193.581,241.956
0.550,45.533,5.639,5.834,235.688,193.529,241.962
0.551,45.564,5.618,5.830,235.691,193.498,241.968
