"T","Distance","Radius","FreeRadius","X","Y","Z"
0.000,0.000,1.286,1.286,213.246,190.822,177.860
0.001,0.227,1.252,1.252,213.065,190.958,177.841
0.002,0.449,1.219,1.219,212.887,191.089,177.824
0.004,0.661,1.189,1.189,212.713,191.211,177.813
0.005,0.859,1.162,1.162,212.546,191.317,177.811
0.006,1.040,1.139,1.139,212.388,191.404,177.821
0.007,1.201,1.122,1.122,212.242,191.465,177.846
0.008,1.344,1.111,1.111,212.109,191.497,177.888
0.010,1.477,1.108,1.108,211.991,191.494,177.951
0.011,1.615,1.114,1.114,211.892,191.452,178.038
0.012,1.778,1.131,1.131,211.814,191.365,178.151
0.013,1.984,1.161,1.161,211.758,191.228,178.294
0.014,2.245,1.208,1.208,211.727,191.037,178.469
0.016,2.568,1.273,1.273,211.721,190.790,178.677
0.017,2.943,1.360,1.360,211.739,190.497,178.911
0.018,3.362,1.471,1.471,211.775,190.167,179.167
0.019,3.812,1.609,1.609,211.827,189.811,179.437
0.020,4.282,1.776,1.776,211.892,189.438,179.714
0.022,4.760,1.973,1.973,211.966,189.057,179.994
0.023,5.234,2.192,2.192,212.046,188.679,180.268
0.024,5.693,2.422,2.422,212.128,188.313,180.532
0.025,6.123,2.655,2.655,212.210,187.969,180.779
0.026,6.514,2.881,2.881,212.288,187.657,181.002
0.028,6.854,3.091,3.091,212.358,187.387,181.195
0.029,7.129,3.275,3.275,212.417,187.169,181.351
0.030,7.338,3.424,3.424,212.464,187.004,181.471
0.031,7.488,3.528,3.528,212.502,186.886,181.556
0.032,7.586,3.591,3.591,212.531,186.810,181.610
0.033,7.642,3.618,3.618,212.554,186.768,181.639
0.035,7.666,3.619,3.619,212.573,186.755,181.645
0.036,7.688,3.600,3.600,212.590,186.763,181.632
0.037,7.727,3.570,3.570,212.605,186.786,181.605
0.038,7.780,3.537,3.537,212.622,186.819,181.567
0.039,7.840,3.509,3.509,212.643,186.854,181.523
0.041,7.902,3.493,3.493,212.668,186.885,181.475
0.042,7.963,3.494,3.494,212.700,186.905,181.428
0.043,8.021,3.509,3.509,212.741,186.909,181.386
0.044,8.084,3.535,3.535,212.790,186.895,181.350
0.045,8.154,3.569,3.569,212.848,186.868,181.320
0.047,8.233,3.607,3.607,212.912,186.829,181.297
0.048,8.321,3.647,3.647,212.983,186.781,181.280
0.049,8.414,3.683,3.683,213.059,186.727,181.270
0.050,8.513,3.714,3.714,213.140,186.670,181.267
0.051,8.615,3.736,3.736,213.224,186.612,181.270
0.053,8.719,3.750,3.750,213.312,186.557,181.280
0.054,8.823,3.755,3.755,213.401,186.507,181.297
0.055,8.925,3.755,3.755,213.491,186.465,181.322
0.056,9.025,3.749,3.749,213.581,186.434,181.353
0.057,9.125,3.740,3.740,213.671,186.416,181.392
0.059,9.225,3.728,3.728,213.760,186.411,181.437
0.060,9.326,3.716,3.716,213.848,186.417,181.486
0.061,9.430,3.703,3.703,213.936,186.432,181.540
0.062,9.535,3.692,3.692,214.022,186.454,181.595
0.063,9.641,3.682,3.682,214.108,186.484,181.651
0.065,9.748,3.672,3.672,214.192,186.518,181.706
0.066,9.854,3.664,3.664,214.276,186.555,181.760
0.067,9.958,3.656,3.656,214.358,186.595,181.810
0.068,10.059,3.650,3.650,214.439,186.634,181.856
0.069,10.157,3.643,3.643,214.519,186.672,181.896
0.071,10.249,3.638,3.638,214.598,186.708,181.929
0.072,10.336,3.633,3.633,214.676,186.739,181.953
0.073,10.421,3.629,3.629,214.754,186.767,181.971
0.074,10.506,3.626,3.626,214.834,186.792,181.983
0.075,10.592,3.625,3.625,214.916,186.814,181.992
0.077,10.681,3.624,3.624,215.004,186.833,181.997
0.078,10.775,3.626,3.626,215.096,186.851,182.002
0.079,10.877,3.630,3.630,215.196,186.866,182.006
0.080,10.986,3.637,3.637,215.304,186.881,182.013
0.081,11.105,3.645,3.645,215.423,186.895,182.022
0.083,11.236,3.657,3.657,215.552,186.908,182.036
0.084,11.380,3.671,3.671,215.694,186.922,182.055
0.085,11.538,3.688,3.688,215.849,186.936,182.082
0.086,11.712,3.706,3.706,216.018,186.950,182.116
0.087,11.896,3.727,3.727,216.198,186.965,182.157
0.089,12.088,3.749,3.749,216.383,186.980,182.202
0.090,12.283,3.773,3.773,216.572,186.996,182.250
0.091,12.479,3.798,3.798,216.761,187.011,182.300
0.092,12.671,3.824,3.824,216.946,187.026,182.351
0.093,12.856,3.851,3.851,217.124,187.040,182.400
0.094,13.030,3.877,3.877,217.291,187.054,182.447
0.096,13.190,3.904,3.904,217.444,187.067,182.490
0.097,13.331,3.929,3.929,217.579,187.079,182.527
0.098,13.449,3.954,3.954,217.693,187.089,182.558
0.099,13.543,3.976,3.976,217.783,187.098,182.580
0.100,13.610,3.996,3.996,217.849,187.106,182.593
0.102,13.656,4.013,4.013,217.894,187.112,182.600
0.103,13.683,4.027,4.027,217.921,187.116,182.600
0.104,13.696,4.039,4.039,217.932,187.119,182.594
0.105,13.706,4.049,4.049,217.932,187.119,182.585
0.106,13.721,4.057,4.057,217.924,187.118,182.572
0.108,13.742,4.064,4.064,217.909,187.115,182.557
0.109,13.766,4.070,4.070,217.892,187.109,182.542
0.110,13.790,4.075,4.075,217.876,187.102,182.526
0.111,13.812,4.081,4.081,217.863,187.092,182.511
0.112,13.830,4.087,4.087,217.857,187.080,182.499
0.114,13.848,4.092,4.092,217.860,187.065,182.489
0.115,13.870,4.098,4.098,217.873,187.049,182.483
0.116,13.899,4.102,4.102,217.895,187.030,182.479
0.117,13.936,4.106,4.106,217.926,187.010,182.477
0.118,13.980,4.109,4.109,217.964,186.989,182.477
0.120,14.030,4.109,4.109,218.010,186.967,182.479
0.121,14.087,4.108,4.108,218.061,186.944,182.481
0.122,14.148,4.105,4.105,218.118,186.921,182.484
0.123,14.215,4.099,4.099,218.181,186.898,182.487
0.124,14.285,4.092,4.092,218.247,186.876,182.489
0.126,14.358,4.085,4.085,218.317,186.854,182.491
0.127,14.433,4.076,4.076,218.390,186.833,182.491
0.128,14.511,4.068,4.068,218.464,186.814,182.491
0.129,14.589,4.060,4.060,218.540,186.795,182.489
0.130,14.667,4.053,4.053,218.616,186.778,182.486
0.132,14.744,4.048,4.048,218.692,186.762,182.483
0.133,14.820,4.044,4.044,218.766,186.747,182.481
0.134,14.892,4.041,4.041,218.837,186.733,182.480
0.135,14.962,4.038,4.038,218.905,186.719,182.480
0.136,15.027,4.035,4.035,218.969,186.707,182.483
0.138,15.087,4.030,4.030,219.027,186.695,182.488
0.139,15.141,4.022,4.022,219.080,186.683,182.496
0.140,15.189,4.011,4.011,219.125,186.672,182.507
0.141,15.231,3.996,3.996,219.162,186.661,182.523
0.142,15.269,3.976,3.976,219.193,186.650,182.543
0.144,15.308,3.953,3.953,219.220,186.637,182.568
0.145,15.353,3.928,3.928,219.250,186.620,182.598
0.146,15.408,3.905,3.905,219.286,186.599,182.632
0.147,15.476,3.884,3.884,219.334,186.570,182.672
0.148,15.563,3.868,3.868,219.399,186.533,182.716
0.150,15.673,3.859,3.859,219.484,186.486,182.766
0.151,15.810,3.859,3.859,219.595,186.426,182.821
0.152,15.980,3.871,3.871,219.736,186.354,182.882
0.153,16.189,3.896,3.896,219.913,186.265,182.949
0.154,16.440,3.934,3.935,220.130,186.160,183.021
0.156,16.740,3.987,3.987,220.391,186.036,183.099
0.157,17.085,4.055,4.055,220.695,185.895,183.182
0.158,17.467,4.139,4.139,221.033,185.740,183.268
0.159,17.877,4.239,4.239,221.397,185.574,183.357
0.160,18.304,4.356,4.356,221.778,185.403,183.447
0.161,18.740,4.490,4.490,222.167,185.229,183.536
0.163,19.174,4.642,4.642,222.556,185.056,183.623
0.164,19.597,4.808,4.807,222.936,184.889,183.707
0.165,19.999,4.980,4.980,223.297,184.732,183.785
0.166,20.371,5.153,5.153,223.632,184.587,183.856
0.167,20.703,5.322,5.321,223.932,184.459,183.919
0.169,20.986,5.479,5.478,224.188,184.351,183.973
0.170,21.210,5.619,5.619,224.393,184.268,184.016
0.171,21.378,5.736,5.736,224.546,184.209,184.048
0.172,21.494,5.824,5.825,224.653,184.170,184.071
0.173,21.566,5.882,5.883,224.721,184.150,184.085
0.175,21.601,5.914,5.916,224.755,184.145,184.092
0.176,21.611,5.925,5.927,224.760,184.153,184.094
0.177,21.636,5.919,5.922,224.742,184.171,184.090
0.178,21.679,5.900,5.904,224.708,184.196,184.083
0.179,21.734,5.873,5.878,224.662,184.226,184.074
0.181,21.795,5.843,5.848,224.611,184.257,184.063
0.182,21.856,5.814,5.819,224.560,184.288,184.052
0.183,21.909,5.790,5.795,224.514,184.314,184.043
0.184,21.950,5.771,5.776,224.480,184.334,184.035
0.185,21.979,5.757,5.761,224.455,184.349,184.030
0.187,21.996,5.748,5.750,224.441,184.358,184.027
0.188,22.004,5.742,5.744,224.434,184.362,184.026
0.189,22.004,5.739,5.740,224.434,184.362,184.026
0.190,22.011,5.740,5.740,224.440,184.359,184.027
0.191,22.023,5.742,5.743,224.450,184.353,184.030
0.193,22.038,5.747,5.747,224.462,184.345,184.033
0.194,22.055,5.754,5.754,224.477,184.336,184.037
0.195,22.073,5.761,5.762,224.491,184.327,184.041
0.196,22.090,5.769,5.770,224.505,184.318,184.045
0.197,22.105,5.777,5.778,224.516,184.309,184.049
0.199,22.116,5.785,5.786,224.524,184.302,184.053
0.200,22.125,5.792,5.793,224.530,184.296,184.057
0.201,22.133,5.797,5.797,224.533,184.290,184.061
0.202,22.141,5.799,5.799,224.534,184.285,184.067
0.203,22.150,5.800,5.799,224.535,184.278,184.073
0.205,22.161,5.799,5.796,224.534,184.271,184.082
0.206,22.175,5.797,5.793,224.534,184.263,184.093
0.207,22.192,5.794,5.789,224.534,184.252,184.106
0.208,22.213,5.792,5.786,224.536,184.239,184.122
0.209,22.239,5.790,5.784,224.538,184.223,184.142
0.211,22.270,5.790,5.786,224.543,184.203,184.165
0.212,22.306,5.792,5.790,224.551,184.180,184.193
0.213,22.350,5.796,5.800,224.561,184.152,184.225
0.214,22.400,5.804,5.812,224.574,184.121,184.261
0.215,22.455,5.813,5.828,224.590,184.085,184.300
0.217,22.516,5.823,5.844,224.607,184.045,184.343
0.218,22.582,5.833,5.860,224.626,184.001,184.388
0.219,22.652,5.843,5.873,224.646,183.952,184.435
0.220,22.728,5.851,5.884,224.667,183.900,184.485
0.221,22.807,5.857,5.889,224.689,183.843,184.536
0.222,22.890,5.860,5.889,224.711,183.783,184.588
0.224,22.977,5.860,5.882,224.733,183.718,184.641
0.225,23.066,5.857,5.869,224.755,183.649,184.694
0.226,23.159,5.852,5.854,224.777,183.576,184.748
0.227,23.255,5.845,5.838,224.798,183.500,184.802
0.228,23.353,5.837,5.823,224.820,183.423,184.859
0.230,23.454,5.827,5.811,224.844,183.347,184.919
0.231,23.557,5.817,5.805,224.870,183.272,184.986
0.232,23.664,5.808,5.805,224.900,183.201,185.060
0.233,23.775,5.799,5.813,224.934,183.136,185.144
0.234,23.892,5.790,5.829,224.974,183.079,185.238
0.236,24.018,5.781,5.849,225.020,183.030,185.345
0.237,24.155,5.770,5.870,225.072,182.993,185.466
0.238,24.307,5.758,5.889,225.133,182.968,185.603
0.239,24.477,5.744,5.903,225.203,182.957,185.757
0.240,24.667,5.726,5.910,225.282,182.962,185.930
0.242,24.876,5.704,5.905,225.369,182.981,186.119
0.243,25.099,5.678,5.887,225.462,183.013,186.319
0.244,25.330,5.647,5.855,225.558,183.054,186.525
0.245,25.565,5.613,5.811,225.655,183.103,186.734
0.246,25.799,5.578,5.759,225.750,183.158,186.940
0.248,26.025,5.542,5.701,225.842,183.215,187.139
0.249,26.239,5.508,5.642,225.927,183.273,187.326
0.250,26.435,5.476,5.585,226.005,183.329,187.497
0.251,26.607,5.448,5.532,226.071,183.382,187.647
0.252,26.750,5.425,5.487,226.124,183.428,187.772
0.254,26.859,5.409,5.453,226.161,183.466,187.867
0.255,26.931,5.399,5.429,226.181,183.494,187.929
0.256,26.970,5.393,5.412,226.188,183.513,187.963
0.257,26.985,5.390,5.402,226.183,183.523,187.973
0.258,27.000,5.389,5.395,226.170,183.527,187.966
0.260,27.027,5.388,5.392,226.153,183.526,187.945
0.261,27.060,5.387,5.388,226.135,183.520,187.918
0.262,27.095,5.383,5.383,226.120,183.511,187.888
0.263,27.125,5.376,5.375,226.109,183.500,187.862
0.264,27.146,5.364,5.363,226.108,183.489,187.844
0.266,27.162,5.349,5.348,226.119,183.479,187.840
0.267,27.193,5.331,5.329,226.146,183.470,187.855
0.268,27.254,5.310,5.308,226.191,183.465,187.895
0.269,27.347,5.287,5.285,226.256,183.464,187.961
0.270,27.469,5.262,5.260,226.341,183.465,188.049
0.272,27.615,5.236,5.235,226.442,183.468,188.154
0.273,27.779,5.209,5.209,226.559,183.471,188.269
0.274,27.957,5.182,5.184,226.689,183.473,188.392
0.275,28.145,5.155,5.158,226.830,183.473,188.515
0.276,28.337,5.127,5.131,226.980,183.470,188.635
0.278,28.530,5.097,5.103,227.138,183.463,188.746
0.279,28.721,5.067,5.073,227.302,183.450,188.842
0.280,28.906,5.036,5.041,227.470,183.430,188.919
0.281,29.086,5.002,5.007,227.639,183.403,188.972
0.282,29.261,4.967,4.969,227.809,183.366,188.995
0.283,29.436,4.930,4.928,227.978,183.320,188.989
0.285,29.615,4.891,4.883,228.146,183.266,188.958
0.286,29.801,4.849,4.836,228.312,183.203,188.905
0.287,29.994,4.806,4.789,228.478,183.133,188.836
0.288,30.192,4.760,4.741,228.642,183.056,188.755
0.289,30.395,4.712,4.695,228.804,182.973,188.667
0.291,30.600,4.662,4.652,228.965,182.884,188.575
0.292,30.806,4.610,4.612,229.124,182.790,188.485
0.293,31.010,4.556,4.577,229.281,182.691,188.401
0.294,31.210,4.501,4.548,229.437,182.589,188.327
0.295,31.405,4.445,4.523,229.590,182.483,188.267
0.297,31.595,4.389,4.502,229.740,182.374,188.227
0.298,31.781,4.336,4.483,229.888,182.264,188.205
0.299,31.962,4.287,4.465,230.032,182.153,188.199
0.300,32.140,4.242,4.446,230.171,182.043,188.208
0.301,32.314,4.204,4.427,230.305,181.935,188.229
0.303,32.482,4.173,4.405,230.432,181.829,188.261
0.304,32.644,4.152,4.379,230.552,181.727,188.299
0.305,32.799,4.138,4.350,230.665,181.631,188.344
0.306,32.944,4.132,4.319,230.769,181.541,188.392
0.307,33.079,4.130,4.286,230.863,181.458,188.441
0.309,33.200,4.132,4.252,230.946,181.384,188.489
0.310,33.307,4.135,4.219,231.018,181.320,188.534
0.311,33.397,4.138,4.187,231.079,181.266,188.574
0.312,33.473,4.139,4.158,231.129,181.222,188.609
0.313,33.537,4.137,4.132,231.171,181.184,188.639
0.315,33.592,4.130,4.110,231.207,181.152,188.665
0.316,33.640,4.119,4.092,231.238,181.123,188.687
0.317,33.683,4.107,4.078,231.266,181.095,188.706
0.318,33.726,4.094,4.067,231.293,181.067,188.723
0.319,33.770,4.082,4.060,231.322,181.037,188.736
0.321,33.819,4.071,4.057,231.354,181.002,188.748
0.322,33.875,4.064,4.056,231.391,180.961,188.758
0.323,33.942,4.061,4.060,231.435,180.911,188.767
0.324,34.022,4.063,4.066,231.488,180.852,188.775
0.325,34.117,4.070,4.074,231.551,180.781,188.783
0.327,34.225,4.082,4.085,231.624,180.701,188.790
0.328,34.344,4.095,4.098,231.704,180.613,188.799
0.329,34.473,4.109,4.112,231.791,180.519,188.808
0.330,34.609,4.124,4.127,231.884,180.421,188.819
0.331,34.749,4.136,4.142,231.982,180.320,188.831
0.333,34.894,4.146,4.156,232.084,180.219,188.846
0.334,35.039,4.151,4.170,232.188,180.119,188.863
0.335,35.184,4.152,4.183,232.293,180.022,188.883
0.336,35.326,4.150,4.194,232.399,179.930,188.907
0.337,35.465,4.144,4.204,232.504,179.844,188.934
0.339,35.598,4.138,4.212,232.608,179.767,188.966
0.340,35.725,4.130,4.219,232.709,179.699,189.002
0.341,35.847,4.124,4.223,232.807,179.638,189.041
0.342,35.964,4.119,4.226,232.904,179.586,189.082
0.343,36.078,4.117,4.226,232.999,179.540,189.125
0.344,36.187,4.119,4.224,233.091,179.499,189.168
0.346,36.294,4.125,4.220,233.182,179.464,189.211
0.347,36.397,4.133,4.215,233.271,179.433,189.253
0.348,36.498,4.144,4.210,233.359,179.405,189.292
0.349,36.595,4.157,4.206,233.446,179.380,189.329
0.350,36.690,4.171,4.203,233.531,179.356,189.361
0.352,36.781,4.186,4.203,233.616,179.333,189.389
0.353,36.871,4.202,4.206,233.699,179.310,189.411
0.354,36.958,4.216,4.214,233.782,179.287,189.428
0.355,37.044,4.231,4.225,233.863,179.263,189.440
0.356,37.129,4.244,4.240,233.944,179.238,189.448
0.358,37.213,4.257,4.257,234.024,179.212,189.454
0.359,37.296,4.268,4.275,234.102,179.185,189.459
0.360,37.378,4.279,4.294,234.179,179.157,189.463
0.361,37.460,4.288,4.312,234.255,179.127,189.467
0.362,37.541,4.296,4.329,234.330,179.095,189.472
0.364,37.622,4.302,4.344,234.403,179.061,189.480
0.365,37.703,4.307,4.356,234.474,179.025,189.492
0.366,37.784,4.311,4.365,234.544,178.987,189.507
0.367,37.866,4.314,4.372,234.612,178.946,189.528
0.368,37.949,4.317,4.377,234.679,178.903,189.553
0.370,38.032,4.320,4.381,234.743,178.859,189.582
0.371,38.114,4.324,4.383,234.804,178.815,189.613
0.372,38.195,4.329,4.386,234.863,178.770,189.647
0.373,38.274,4.335,4.389,234.918,178.726,189.681
0.374,38.349,4.343,4.392,234.970,178.683,189.715
0.376,38.421,4.353,4.396,235.018,178.642,189.749
0.377,38.487,4.365,4.401,235.062,178.604,189.781
0.378,38.547,4.377,4.406,235.101,178.569,189.810
0.379,38.600,4.389,4.411,235.136,178.538,189.835
0.380,38.645,4.401,4.416,235.166,178.512,189.856
0.382,38.680,4.412,4.421,235.190,178.491,189.872
0.383,38.709,4.422,4.426,235.210,178.474,189.883
0.384,38.730,4.430,4.430,235.225,178.461,189.891
0.385,38.746,4.436,4.433,235.237,178.452,189.896
0.386,38.758,4.440,4.436,235.247,178.445,189.899
0.388,38.767,4.442,4.438,235.253,178.439,189.901
0.389,38.774,4.443,4.440,235.258,178.435,189.903
0.390,38.780,4.444,4.441,235.262,178.432,189.906
0.391,38.786,4.444,4.443,235.265,178.428,189.910
0.392,38.795,4.444,4.444,235.268,178.424,189.917
0.394,38.807,4.445,4.445,235.271,178.418,189.927
0.395,38.824,4.447,4.447,235.276,178.410,189.941
0.396,38.847,4.450,4.449,235.282,178.399,189.960
0.397,38.876,4.454,4.452,235.292,178.384,189.983
0.398,38.912,4.460,4.456,235.305,178.365,190.011
0.400,38.955,4.467,4.463,235.322,178.341,190.043
0.401,39.007,4.476,4.471,235.345,178.310,190.078
0.402,39.068,4.487,4.483,235.374,178.273,190.117
0.403,39.140,4.500,4.498,235.410,178.228,190.158
0.404,39.222,4.516,4.517,235.454,178.175,190.203
0.406,39.317,4.534,4.540,235.508,178.112,190.251
0.407,39.426,4.554,4.567,235.571,178.040,190.301
0.408,39.549,4.578,4.598,235.645,177.957,190.353
0.409,39.688,4.605,4.634,235.731,177.862,190.407
0.410,39.841,4.636,4.675,235.828,177.756,190.463
0.411,40.006,4.670,4.719,235.933,177.642,190.520
0.413,40.180,4.708,4.769,236.045,177.522,190.577
0.414,40.360,4.751,4.823,236.161,177.399,190.635
0.415,40.541,4.799,4.882,236.279,177.274,190.694
0.416,40.722,4.850,4.944,236.397,177.150,190.751
0.417,40.898,4.902,5.007,236.513,177.030,190.808
0.419,41.067,4.955,5.069,236.624,176.916,190.864
0.420,41.225,5.006,5.130,236.728,176.810,190.919
0.421,41.370,5.053,5.185,236.823,176.714,190.971
0.422,41.497,5.096,5.235,236.907,176.632,191.021
0.423,41.606,5.131,5.276,236.978,176.564,191.069
0.425,41.697,5.158,5.307,237.036,176.511,191.114
0.426,41.774,5.176,5.328,237.086,176.471,191.156
0.427,41.840,5.188,5.339,237.130,176.441,191.196
0.428,41.899,5.194,5.343,237.170,176.421,191.234
0.429,41.954,5.198,5.343,237.210,176.408,191.270
0.431,42.010,5.200,5.338,237.253,176.400,191.304
0.432,42.068,5.204,5.332,237.300,176.395,191.337
0.433,42.132,5.212,5.326,237.356,176.392,191.369
0.434,42.205,5.225,5.323,237.423,176.389,191.399
0.435,42.291,5.244,5.323,237.503,176.384,191.429
0.437,42.393,5.271,5.327,237.601,176.375,191.457
0.438,42.513,5.302,5.337,237.717,176.360,191.485
0.439,42.651,5.337,5.352,237.851,176.340,191.513
0.440,42.806,5.374,5.373,238.000,176.313,191.540
0.441,42.975,5.412,5.400,238.163,176.278,191.566
0.443,43.156,5.450,5.435,238.338,176.237,191.592
0.444,43.349,5.485,5.477,238.523,176.188,191.617
0.445,43.551,5.518,5.527,238.715,176.131,191.641
0.446,43.761,5.546,5.584,238.913,176.066,191.664
0.447,43.977,5.573,5.647,239.115,175.991,191.687
0.449,44.198,5.598,5.714,239.318,175.908,191.709
0.450,44.423,5.623,5.782,239.522,175.815,191.730
0.451,44.650,5.649,5.851,239.723,175.712,191.751
0.452,44.877,5.678,5.917,239.920,175.599,191.770
0.453,45.104,5.709,5.980,240.111,175.479,191.789
0.455,45.327,5.745,6.037,240.296,175.355,191.807
0.456,45.544,5.787,6.088,240.471,175.228,191.825
0.457,45.752,5.832,6.131,240.636,175.102,191.842
0.458,45.949,5.879,6.167,240.789,174.979,191.858
0.459,46.132,5.927,6.197,240.928,174.862,191.875
0.461,46.299,5.973,6.221,241.053,174.753,191.890
0.462,46.445,6.017,6.240,241.160,174.654,191.906
0.463,46.570,6.056,6.253,241.250,174.569,191.922
0.464,46.669,6.088,6.261,241.319,174.499,191.937
0.465,46.742,6.112,6.264,241.367,174.448,191.953
0.467,46.787,6.128,6.264,241.395,174.415,191.968
0.468,46.813,6.138,6.261,241.406,174.397,191.982
0.469,46.827,6.141,6.256,241.405,174.392,191.996
0.470,46.843,6.140,6.251,241.395,174.396,192.007
0.471,46.862,6.136,6.245,241.380,174.406,192.016
0.472,46.884,6.130,6.241,241.365,174.419,192.021
0.474,46.902,6.124,6.239,241.353,174.432,192.024
0.475,46.913,6.118,6.240,241.348,174.442,192.022
0.476,46.923,6.115,6.245,241.354,174.446,192.015
0.477,46.948,6.113,6.254,241.375,174.440,192.003
0.478,46.996,6.114,6.266,241.415,174.423,191.985
0.480,47.071,6.118,6.281,241.479,174.390,191.961
0.481,47.172,6.124,6.298,241.563,174.342,191.931
0.482,47.295,6.135,6.316,241.665,174.283,191.896
0.483,47.435,6.148,6.336,241.781,174.213,191.859
0.484,47.586,6.166,6.357,241.905,174.137,191.819
0.486,47.744,6.188,6.377,242.033,174.056,191.778
0.487,47.902,6.214,6.398,242.162,173.972,191.738
