"T","Distance","Radius","FreeRadius","X","Y","Z"
0.000,0.000,1.774,1.774,-24.546,115.012,163.187
0.001,0.477,1.995,1.995,-24.255,115.383,163.255
0.003,0.950,2.216,2.216,-23.966,115.751,163.323
0.004,1.416,2.435,2.435,-23.680,116.113,163.389
0.005,1.871,2.649,2.649,-23.402,116.468,163.453
0.007,2.312,2.860,2.860,-23.131,116.811,163.515
0.008,2.736,3.065,3.065,-22.871,117.140,163.573
0.009,3.138,3.263,3.263,-22.624,117.452,163.627
0.010,3.516,3.453,3.453,-22.391,117.745,163.677
0.012,3.865,3.633,3.633,-22.175,118.016,163.721
0.013,4.182,3.803,3.803,-21.978,118.261,163.759
0.014,4.464,3.961,3.961,-21.802,118.479,163.791
0.016,4.706,4.105,4.105,-21.649,118.666,163.815
0.017,4.907,4.233,4.233,-21.521,118.820,163.831
0.018,5.063,4.344,4.344,-21.419,118.938,163.839
0.020,5.179,4.437,4.437,-21.342,119.024,163.839
0.021,5.260,4.510,4.510,-21.284,119.081,163.834
0.022,5.312,4.564,4.564,-21.244,119.112,163.823
0.024,5.343,4.602,4.602,-21.218,119.122,163.808
0.025,5.368,4.627,4.627,-21.203,119.112,163.791
0.026,5.400,4.642,4.642,-21.195,119.088,163.772
0.027,5.441,4.651,4.651,-21.191,119.051,163.753
0.029,5.489,4.657,4.657,-21.187,119.007,163.735
0.030,5.541,4.662,4.662,-21.182,118.958,163.720
0.031,5.594,4.670,4.670,-21.170,118.908,163.707
0.033,5.647,4.681,4.681,-21.150,118.859,163.699
0.034,5.701,4.696,4.696,-21.117,118.817,163.697
0.035,5.760,4.714,4.714,-21.069,118.783,163.702
0.037,5.827,4.735,4.735,-21.009,118.757,163.712
0.038,5.902,4.760,4.760,-20.937,118.738,163.728
0.039,5.985,4.788,4.788,-20.857,118.725,163.748
0.041,6.075,4.820,4.820,-20.771,118.718,163.771
0.042,6.169,4.854,4.854,-20.681,118.716,163.797
0.043,6.265,4.890,4.890,-20.589,118.718,163.824
0.044,6.361,4.926,4.926,-20.497,118.722,163.853
0.046,6.455,4.959,4.959,-20.408,118.729,163.882
0.047,6.544,4.989,4.989,-20.323,118.737,163.909
0.048,6.626,5.013,5.013,-20.246,118.745,163.935
0.050,6.699,5.029,5.029,-20.178,118.753,163.959
0.051,6.759,5.037,5.037,-20.121,118.760,163.979
0.052,6.806,5.035,5.035,-20.078,118.765,163.996
0.054,6.840,5.026,5.026,-20.046,118.768,164.008
0.055,6.863,5.012,5.012,-20.026,118.770,164.018
0.056,6.877,4.997,4.997,-20.014,118.770,164.025
0.058,6.883,4.981,4.981,-20.010,118.769,164.030
0.059,6.888,4.967,4.967,-20.013,118.767,164.034
0.060,6.896,4.958,4.958,-20.021,118.765,164.036
0.061,6.908,4.956,4.956,-20.033,118.762,164.038
0.063,6.923,4.961,4.961,-20.046,118.759,164.039
0.064,6.938,4.971,4.971,-20.061,118.756,164.041
0.065,6.953,4.984,4.984,-20.076,118.754,164.044
0.067,6.967,4.999,4.999,-20.088,118.751,164.048
0.068,6.978,5.014,5.014,-20.098,118.749,164.054
0.069,6.988,5.028,5.028,-20.103,118.748,164.062
0.071,6.997,5.038,5.038,-20.105,118.748,164.072
0.072,7.008,5.043,5.043,-20.104,118.749,164.082
0.073,7.019,5.044,5.044,-20.100,118.750,164.093
0.075,7.031,5.042,5.042,-20.095,118.751,164.103
0.076,7.042,5.037,5.037,-20.088,118.753,164.112
0.077,7.052,5.032,5.032,-20.082,118.754,164.119
0.078,7.060,5.025,5.025,-20.075,118.756,164.124
0.080,7.066,5.019,5.019,-20.070,118.758,164.125
0.081,7.071,5.015,5.015,-20.066,118.760,164.123
0.082,7.078,5.012,5.012,-20.064,118.762,164.117
0.084,7.089,5.012,5.012,-20.066,118.763,164.105
0.085,7.107,5.013,5.013,-20.070,118.764,164.088
0.086,7.132,5.016,5.016,-20.079,118.765,164.065
0.088,7.160,5.020,5.020,-20.090,118.765,164.039
0.089,7.190,5.026,5.026,-20.102,118.765,164.012
0.090,7.217,5.032,5.032,-20.114,118.765,163.987
0.092,7.240,5.038,5.038,-20.124,118.766,163.967
0.093,7.256,5.045,5.045,-20.132,118.767,163.953
0.094,7.261,5.050,5.050,-20.135,118.768,163.949
0.095,7.270,5.052,5.052,-20.132,118.770,163.957
0.097,7.295,5.050,5.051,-20.123,118.774,163.980
0.098,7.339,5.043,5.043,-20.105,118.778,164.020
0.099,7.405,5.029,5.029,-20.077,118.784,164.080
0.101,7.497,5.006,5.006,-20.038,118.791,164.163
0.102,7.616,4.974,4.974,-19.987,118.800,164.270
0.103,7.764,4.932,4.932,-19.923,118.811,164.403
0.105,7.938,4.884,4.884,-19.847,118.823,164.559
0.106,8.133,4.829,4.829,-19.760,118.838,164.733
0.107,8.346,4.770,4.770,-19.665,118.856,164.922
0.108,8.572,4.707,4.707,-19.562,118.876,165.123
0.110,8.807,4.643,4.643,-19.453,118.899,165.331
0.111,9.049,4.579,4.579,-19.340,118.924,165.542
0.112,9.292,4.516,4.516,-19.224,118.953,165.754
0.114,9.533,4.454,4.455,-19.107,118.985,165.962
0.115,9.768,4.395,4.396,-18.989,119.021,166.162
0.116,9.993,4.339,4.339,-18.873,119.060,166.351
0.118,10.205,4.286,4.287,-18.759,119.103,166.524
0.119,10.400,4.237,4.238,-18.650,119.150,166.679
0.120,10.577,4.193,4.193,-18.546,119.202,166.814
0.122,10.741,4.153,4.153,-18.445,119.258,166.929
0.123,10.894,4.118,4.118,-18.347,119.319,167.029
0.124,11.041,4.090,4.089,-18.248,119.387,167.115
0.125,11.185,4.067,4.066,-18.149,119.460,167.190
0.127,11.332,4.050,4.050,-18.047,119.541,167.256
0.128,11.482,4.041,4.040,-17.940,119.629,167.317
0.129,11.641,4.038,4.038,-17.828,119.725,167.374
0.131,11.810,4.043,4.043,-17.708,119.829,167.430
0.132,11.991,4.056,4.057,-17.579,119.943,167.487
0.133,12.187,4.077,4.079,-17.440,120.066,167.549
0.135,12.400,4.107,4.110,-17.288,120.199,167.618
0.136,12.632,4.147,4.150,-17.123,120.343,167.695
0.137,12.884,4.197,4.200,-16.944,120.496,167.783
0.139,13.151,4.257,4.260,-16.754,120.658,167.879
0.140,13.431,4.328,4.331,-16.555,120.826,167.982
0.141,13.717,4.412,4.412,-16.352,120.997,168.090
0.142,14.007,4.507,4.504,-16.146,121.169,168.200
0.144,14.297,4.611,4.606,-15.941,121.340,168.311
0.145,14.580,4.722,4.713,-15.740,121.508,168.421
0.146,14.855,4.834,4.823,-15.546,121.670,168.527
0.148,15.116,4.945,4.932,-15.361,121.824,168.629
0.149,15.360,5.050,5.039,-15.189,121.968,168.723
0.150,15.581,5.146,5.139,-15.032,122.099,168.809
0.152,15.776,5.229,5.230,-14.894,122.215,168.884
0.153,15.941,5.297,5.310,-14.778,122.314,168.945
0.154,16.074,5.351,5.378,-14.684,122.395,168.993
0.156,16.178,5.393,5.435,-14.611,122.459,169.029
0.157,16.256,5.424,5.482,-14.556,122.509,169.054
0.158,16.311,5.448,5.519,-14.517,122.545,169.069
0.159,16.346,5.465,5.547,-14.493,122.570,169.075
0.161,16.366,5.479,5.566,-14.480,122.584,169.075
0.162,16.375,5.490,5.576,-14.476,122.591,169.070
0.163,16.385,5.500,5.580,-14.480,122.591,169.061
0.165,16.401,5.509,5.578,-14.490,122.586,169.049
0.166,16.420,5.517,5.572,-14.501,122.578,169.036
0.167,16.440,5.525,5.564,-14.514,122.569,169.023
0.169,16.459,5.532,5.556,-14.525,122.560,169.011
0.170,16.472,5.538,5.550,-14.532,122.552,169.003
0.171,16.479,5.544,5.546,-14.534,122.548,168.998
0.173,16.482,5.549,5.547,-14.533,122.546,168.997
0.174,16.487,5.553,5.553,-14.528,122.546,168.998
0.175,16.495,5.556,5.562,-14.521,122.547,169.000
0.176,16.504,5.558,5.571,-14.512,122.551,169.004
0.178,16.515,5.557,5.580,-14.503,122.555,169.008
0.179,16.525,5.554,5.586,-14.495,122.560,169.012
0.180,16.535,5.548,5.588,-14.489,122.566,169.014
0.182,16.542,5.539,5.584,-14.484,122.572,169.016
0.183,16.547,5.526,5.574,-14.484,122.577,169.015
0.184,16.554,5.511,5.557,-14.487,122.582,169.011
0.186,16.566,5.495,5.536,-14.496,122.585,169.003
0.187,16.585,5.479,5.514,-14.510,122.588,168.992
0.188,16.611,5.466,5.492,-14.531,122.589,168.976
0.190,16.641,5.455,5.473,-14.555,122.591,168.959
0.191,16.672,5.450,5.458,-14.581,122.596,168.942
0.192,16.703,5.451,5.449,-14.606,122.605,168.927
0.193,16.731,5.458,5.448,-14.629,122.619,168.917
0.195,16.760,5.469,5.452,-14.647,122.641,168.913
0.196,16.794,5.480,5.458,-14.658,122.673,168.917
0.197,16.838,5.488,5.463,-14.659,122.715,168.933
0.199,16.901,5.489,5.466,-14.650,122.770,168.960
0.200,16.985,5.481,5.463,-14.626,122.839,169.002
0.201,17.095,5.459,5.451,-14.588,122.924,169.061
0.203,17.236,5.420,5.428,-14.531,123.027,169.139
0.204,17.411,5.366,5.394,-14.455,123.149,169.238
0.205,17.619,5.298,5.350,-14.359,123.289,169.357
0.207,17.854,5.223,5.300,-14.246,123.445,169.493
0.208,18.111,5.143,5.245,-14.122,123.612,169.643
0.209,18.383,5.063,5.189,-13.988,123.787,169.803
0.210,18.664,4.986,5.132,-13.849,123.965,169.971
0.212,18.948,4.918,5.079,-13.708,124.143,170.141
0.213,19.229,4.862,5.030,-13.569,124.318,170.312
0.214,19.501,4.817,4.987,-13.436,124.484,170.480
0.216,19.756,4.783,4.948,-13.312,124.639,170.641
0.217,19.990,4.758,4.913,-13.200,124.779,170.791
0.218,20.196,4.739,4.882,-13.105,124.900,170.928
0.220,20.369,4.725,4.854,-13.029,124.998,171.048
0.221,20.502,4.715,4.828,-12.977,125.070,171.148
0.222,20.597,4.706,4.803,-12.949,125.115,171.226
0.224,20.660,4.698,4.779,-12.940,125.139,171.284
0.225,20.701,4.689,4.757,-12.946,125.146,171.324
0.226,20.731,4.680,4.736,-12.964,125.140,171.348
0.227,20.760,4.671,4.717,-12.988,125.127,171.357
0.229,20.792,4.661,4.701,-13.016,125.112,171.353
0.230,20.825,4.652,4.687,-13.042,125.099,171.339
0.231,20.857,4.641,4.676,-13.062,125.093,171.314
0.233,20.892,4.630,4.669,-13.073,125.099,171.282
0.234,20.936,4.619,4.664,-13.070,125.121,171.244
0.235,21.000,4.607,4.662,-13.049,125.166,171.202
0.237,21.094,4.594,4.661,-13.006,125.236,171.158
0.238,21.225,4.580,4.661,-12.937,125.338,171.113
0.239,21.395,4.564,4.659,-12.841,125.471,171.069
0.241,21.599,4.548,4.655,-12.722,125.630,171.026
0.242,21.831,4.529,4.647,-12.583,125.812,170.987
0.243,22.086,4.509,4.636,-12.427,126.010,170.951
0.244,22.358,4.487,4.620,-12.259,126.222,170.920
0.246,22.641,4.463,4.599,-12.080,126.441,170.896
0.247,22.930,4.437,4.574,-11.896,126.663,170.879
0.248,23.219,4.411,4.545,-11.710,126.883,170.870
0.250,23.502,4.383,4.512,-11.524,127.097,170.870
0.251,23.774,4.354,4.475,-11.343,127.299,170.881
0.252,24.030,4.324,4.435,-11.170,127.486,170.904
0.254,24.264,4.293,4.391,-11.008,127.652,170.939
0.255,24.473,4.263,4.347,-10.861,127.793,170.987
0.256,24.658,4.237,4.304,-10.730,127.908,171.049
0.258,24.824,4.215,4.266,-10.614,127.999,171.123
0.259,24.974,4.200,4.235,-10.512,128.071,171.208
0.260,25.114,4.194,4.215,-10.422,128.125,171.301
0.261,25.248,4.199,4.208,-10.345,128.166,171.402
0.263,25.377,4.217,4.217,-10.279,128.195,171.510
0.264,25.505,4.249,4.243,-10.222,128.217,171.621
0.265,25.630,4.292,4.282,-10.174,128.234,171.736
0.267,25.755,4.342,4.331,-10.133,128.248,171.853
0.268,25.877,4.394,4.385,-10.099,128.265,171.969
0.269,25.998,4.446,4.439,-10.071,128.285,172.085
0.271,26.116,4.494,4.489,-10.047,128.313,172.197
0.272,26.233,4.532,4.531,-10.026,128.351,172.306
0.273,26.349,4.559,4.560,-10.008,128.401,172.409
0.275,26.466,4.572,4.574,-9.991,128.461,172.509
0.276,26.585,4.573,4.576,-9.975,128.531,172.604
0.277,26.707,4.566,4.569,-9.959,128.609,172.694
0.278,26.831,4.552,4.554,-9.940,128.696,172.782
0.280,26.958,4.533,4.535,-9.920,128.789,172.865
0.281,27.089,4.513,4.514,-9.896,128.889,172.946
0.282,27.223,4.493,4.494,-9.867,128.995,173.024
0.284,27.361,4.476,4.476,-9.833,129.105,173.099
0.285,27.501,4.463,4.463,-9.793,129.219,173.172
0.286,27.646,4.454,4.453,-9.746,129.336,173.242
0.288,27.794,4.448,4.447,-9.690,129.455,173.311
0.289,27.947,4.445,4.445,-9.625,129.575,173.379
0.290,28.103,4.446,4.446,-9.552,129.697,173.444
0.292,28.265,4.451,4.450,-9.470,129.820,173.509
0.293,28.431,4.458,4.458,-9.383,129.946,173.573
0.294,28.601,4.469,4.469,-9.290,130.075,173.635
0.295,28.776,4.483,4.483,-9.194,130.208,173.697
0.297,28.956,4.499,4.499,-9.096,130.345,173.757
0.298,29.139,4.517,4.517,-8.997,130.487,173.817
0.299,29.326,4.537,4.536,-8.898,130.634,173.877
0.301,29.518,4.558,4.558,-8.801,130.788,173.936
0.302,29.713,4.580,4.580,-8.706,130.949,173.994
0.303,29.912,4.603,4.603,-8.617,131.116,174.053
0.305,30.115,4.626,4.626,-8.532,131.292,174.111
0.306,30.324,4.650,4.651,-8.455,131.477,174.169
0.307,30.536,4.675,4.677,-8.385,131.668,174.227
0.308,30.751,4.704,4.705,-8.322,131.866,174.285
0.310,30.966,4.735,4.737,-8.265,132.066,174.341
0.311,31.181,4.770,4.771,-8.214,132.267,174.397
0.312,31.394,4.809,4.810,-8.168,132.467,174.451
0.314,31.601,4.854,4.853,-8.128,132.664,174.503
0.315,31.802,4.903,4.901,-8.093,132.856,174.552
0.316,31.995,4.956,4.951,-8.061,133.040,174.600
0.318,32.176,5.009,5.003,-8.034,133.214,174.644
0.319,32.345,5.062,5.055,-8.010,133.376,174.685
0.320,32.500,5.112,5.106,-7.989,133.524,174.723
0.322,32.637,5.158,5.153,-7.971,133.656,174.757
0.323,32.755,5.198,5.197,-7.955,133.769,174.786
0.324,32.856,5.231,5.235,-7.940,133.865,174.811
0.325,32.939,5.256,5.268,-7.927,133.945,174.832
0.327,33.009,5.275,5.295,-7.913,134.012,174.848
0.328,33.067,5.289,5.318,-7.899,134.067,174.859
0.329,33.116,5.298,5.336,-7.883,134.113,174.865
0.331,33.159,5.304,5.351,-7.865,134.152,174.867
0.332,33.199,5.309,5.362,-7.844,134.186,174.863
0.333,33.239,5.312,5.370,-7.820,134.216,174.854
0.335,33.283,5.315,5.376,-7.791,134.246,174.839
0.336,33.334,5.319,5.381,-7.757,134.278,174.819
0.337,33.392,5.323,5.384,-7.717,134.313,174.794
0.339,33.461,5.329,5.388,-7.671,134.354,174.763
0.340,33.543,5.336,5.392,-7.617,134.402,174.726
0.341,33.635,5.345,5.398,-7.557,134.457,174.684
0.342,33.736,5.355,5.406,-7.491,134.519,174.638
0.344,33.844,5.369,5.418,-7.422,134.586,174.589
0.345,33.956,5.384,5.433,-7.350,134.655,174.538
0.346,34.071,5.402,5.450,-7.277,134.727,174.486
0.348,34.185,5.420,5.469,-7.204,134.799,174.434
0.349,34.297,5.438,5.488,-7.134,134.870,174.384
0.350,34.405,5.456,5.507,-7.066,134.938,174.336
0.352,34.506,5.472,5.523,-7.003,135.003,174.292
0.353,34.597,5.485,5.538,-6.946,135.063,174.252
0.354,34.677,5.496,5.548,-6.897,135.115,174.217
0.356,34.743,5.504,5.555,-6.856,135.160,174.190
0.357,34.794,5.509,5.559,-6.826,135.196,174.170
0.358,34.831,5.513,5.561,-6.805,135.223,174.158
0.359,34.856,5.515,5.561,-6.791,135.243,174.152
0.361,34.873,5.516,5.562,-6.782,135.257,174.153
0.362,34.887,5.517,5.563,-6.776,135.269,174.160
0.363,34.903,5.519,5.565,-6.772,135.278,174.172
0.365,34.922,5.521,5.570,-6.767,135.287,174.188
0.366,34.946,5.525,5.576,-6.759,135.298,174.207
0.367,34.976,5.530,5.584,-6.746,135.313,174.230
0.369,35.013,5.536,5.593,-6.726,135.332,174.255
0.370,35.061,5.543,5.603,-6.698,135.358,174.283
0.371,35.120,5.551,5.613,-6.659,135.393,174.311
0.373,35.195,5.561,5.622,-6.606,135.438,174.340
0.374,35.287,5.572,5.631,-6.539,135.495,174.368
0.375,35.397,5.585,5.638,-6.459,135.563,174.398
0.376,35.521,5.599,5.645,-6.366,135.640,174.428
0.378,35.659,5.614,5.652,-6.263,135.725,174.461
0.379,35.807,5.630,5.660,-6.152,135.816,174.498
0.380,35.963,5.648,5.668,-6.035,135.911,174.539
0.382,36.126,5.668,5.679,-5.913,136.009,174.585
0.383,36.293,5.688,5.692,-5.789,136.108,174.638
0.384,36.462,5.710,5.708,-5.665,136.206,174.698
0.386,36.632,5.733,5.728,-5.543,136.301,174.767
0.387,36.801,5.758,5.750,-5.424,136.392,174.845
0.388,36.968,5.783,5.774,-5.310,136.477,174.934
0.390,37.134,5.808,5.800,-5.204,136.554,175.034
0.391,37.297,5.833,5.827,-5.107,136.622,175.147
0.392,37.460,5.858,5.855,-5.019,136.681,175.271
0.393,37.623,5.883,5.882,-4.940,136.732,175.404
0.395,37.787,5.907,5.909,-4.869,136.774,175.546
0.396,37.952,5.930,5.935,-4.806,136.809,175.694
0.397,38.118,5.953,5.960,-4.749,136.837,175.848
0.399,38.284,5.975,5.984,-4.698,136.859,176.004
0.400,38.449,5.996,6.007,-4.653,136.876,176.162
0.401,38.613,6.017,6.030,-4.613,136.888,176.320
0.403,38.773,6.037,6.051,-4.577,136.896,176.477
0.404,38.930,6.057,6.071,-4.545,136.900,176.630
0.405,39.081,6.077,6.091,-4.515,136.902,176.778
0.407,39.225,6.097,6.109,-4.488,136.901,176.919
0.408,39.361,6.116,6.127,-4.463,136.899,177.053
0.409,39.489,6.136,6.145,-4.440,136.895,177.179
0.410,39.609,6.156,6.163,-4.418,136.891,177.297
0.412,39.723,6.177,6.181,-4.397,136.887,177.409
0.413,39.831,6.198,6.200,-4.378,136.882,177.515
0.414,39.933,6.220,6.220,-4.360,136.878,177.616
0.416,40.031,6.243,6.241,-4.344,136.875,177.712
0.417,40.125,6.267,6.263,-4.328,136.874,177.804
0.418,40.215,6.291,6.285,-4.314,136.873,177.893
0.420,40.302,6.314,6.308,-4.301,136.875,177.980
0.421,40.388,6.337,6.332,-4.289,136.880,178.065
0.422,40.473,6.359,6.355,-4.278,136.887,178.148
0.424,40.557,6.379,6.379,-4.268,136.898,178.231
0.425,40.642,6.397,6.402,-4.258,136.912,178.314
0.426,40.728,6.414,6.426,-4.249,136.929,178.398
0.427,40.814,6.430,6.449,-4.241,136.950,178.481
0.429,40.901,6.444,6.471,-4.232,136.972,178.564
0.430,40.988,6.459,6.493,-4.223,136.997,178.647
0.431,41.075,6.475,6.514,-4.214,137.023,178.730
0.433,41.162,6.491,6.535,-4.204,137.050,178.812
0.434,41.249,6.509,6.555,-4.192,137.078,178.894
0.435,41.335,6.529,6.574,-4.179,137.105,178.974
0.437,41.420,6.551,6.593,-4.164,137.133,179.054
0.438,41.505,6.574,6.610,-4.147,137.159,179.132
0.439,41.589,6.597,6.627,-4.128,137.184,179.210
0.441,41.671,6.621,6.642,-4.106,137.208,179.286
0.442,41.752,6.643,6.657,-4.081,137.229,179.360
0.443,41.832,6.664,6.670,-4.053,137.248,179.433
0.444,41.911,6.683,6.683,-4.023,137.265,179.504
0.446,41.989,6.699,6.694,-3.992,137.279,179.573
0.447,42.065,6.713,6.705,-3.960,137.292,179.641
0.448,42.140,6.724,6.715,-3.926,137.303,179.707
0.450,42.213,6.735,6.725,-3.893,137.311,179.771
0.451,42.283,6.744,6.735,-3.859,137.318,179.833
0.452,42.352,6.753,6.747,-3.827,137.323,179.893
0.454,42.418,6.762,6.759,-3.795,137.327,179.952
0.455,42.482,6.772,6.773,-3.765,137.328,180.008
0.456,42.543,6.783,6.789,-3.737,137.329,180.062
0.458,42.600,6.793,6.806,-3.712,137.327,180.113
0.459,42.655,6.804,6.824,-3.690,137.324,180.163
0.460,42.706,6.815,6.843,-3.671,137.320,180.210
0.461,42.753,6.825,6.861,-3.654,137.315,180.255
0.463,42.798,6.833,6.880,-3.640,137.310,180.296
0.464,42.839,6.841,6.897,-3.629,137.304,180.335
0.465,42.876,6.846,6.914,-3.621,137.299,180.371
0.467,42.909,6.849,6.929,-3.615,137.294,180.403
0.468,42.939,6.851,6.942,-3.611,137.290,180.433
0.469,42.964,6.852,6.955,-3.609,137.287,180.458
0.471,42.986,6.852,6.965,-3.610,137.285,180.480
0.472,43.004,6.851,6.975,-3.613,137.286,180.497
0.473,43.018,6.851,6.983,-3.617,137.288,180.511
0.475,43.031,6.850,6.989,-3.623,137.293,180.520
0.476,43.043,6.851,6.994,-3.631,137.301,180.525
0.477,43.056,6.852,6.997,-3.640,137.310,180.526
0.478,43.070,6.852,6.998,-3.650,137.320,180.524
0.480,43.083,6.852,6.998,-3.658,137.331,180.521
0.481,43.096,6.851,6.995,-3.665,137.340,180.517
0.482,43.106,6.848,6.990,-3.670,137.348,180.512
0.484,43.112,6.843,6.983,-3.672,137.353,180.509
0.485,43.115,6.835,6.974,-3.670,137.354,180.507
0.486,43.122,6.824,6.962,-3.664,137.350,180.509
0.488,43.138,6.810,6.948,-3.652,137.340,180.514
0.489,43.164,6.792,6.934,-3.634,137.324,180.523
0.490,43.202,6.771,6.918,-3.609,137.301,180.538
0.492,43.252,6.746,6.903,-3.576,137.269,180.559
0.493,43.317,6.717,6.888,-3.535,137.228,180.588
0.494,43.396,6.685,6.875,-3.484,137.179,180.625
0.495,43.488,6.649,6.863,-3.424,137.127,180.670
0.497,43.593,6.608,6.853,-3.353,137.072,180.726
0.498,43.711,6.564,6.842,-3.271,137.018,180.791
0.499,43.843,6.514,6.826,-3.177,136.967,180.868
0.501,43.989,6.458,6.805,-3.071,136.922,180.957
0.502,44.150,6.397,6.775,-2.952,136.884,181.058
0.503,44.328,6.329,6.733,-2.818,136.857,181.173
0.505,44.525,6.254,6.677,-2.671,136.843,181.303
0.506,44.742,6.172,6.606,-2.508,136.845,181.447
0.507,44.983,6.085,6.519,-2.330,136.865,181.607
0.508,45.249,5.995,6.422,-2.135,136.905,181.784
0.510,45.542,5.907,6.318,-1.923,136.968,181.977
0.511,45.858,5.822,6.213,-1.699,137.050,182.184
0.512,46.194,5.746,6.109,-1.464,137.149,182.402
0.514,46.542,5.681,6.012,-1.222,137.261,182.627
0.515,46.898,5.630,5.925,-0.978,137.382,182.856
0.516,47.257,5.596,5.852,-0.734,137.511,183.085
0.518,47.612,5.577,5.793,-0.494,137.643,183.311
0.519,47.959,5.569,5.744,-0.262,137.775,183.532
0.520,48.291,5.568,5.704,-0.040,137.904,183.743
0.522,48.603,5.572,5.670,0.167,138.027,183.940
0.523,48.888,5.577,5.640,0.356,138.140,184.122
0.524,49.142,5.579,5.613,0.524,138.241,184.284
0.525,49.359,5.575,5.586,0.667,138.325,184.424
0.527,49.534,5.562,5.557,0.783,138.390,184.538
0.528,49.671,5.544,5.528,0.873,138.439,184.628
0.529,49.773,5.521,5.501,0.940,138.472,184.698
0.531,49.844,5.497,5.477,0.987,138.491,184.749
0.532,49.890,5.475,5.457,1.015,138.499,184.783
0.533,49.915,5.456,5.444,1.028,138.497,184.805
0.535,49.929,5.443,5.439,1.027,138.488,184.815
0.536,49.948,5.438,5.442,1.016,138.472,184.816
0.537,49.976,5.443,5.455,0.997,138.452,184.811
0.539,50.011,5.455,5.475,0.972,138.430,184.803
