"T","Distance","Radius","FreeRadius","X","Y","Z"
0.000,0.000,2.937,2.937,207.793,193.636,185.035
0.001,0.053,2.953,2.953,207.816,193.615,185.077
0.003,0.106,2.971,2.971,207.840,193.595,185.121
0.004,0.162,2.988,2.988,207.866,193.575,185.166
0.005,0.222,3.007,3.007,207.895,193.554,185.213
0.007,0.286,3.026,3.026,207.928,193.532,185.264
0.008,0.356,3.047,3.047,207.965,193.510,185.319
0.010,0.434,3.070,3.070,208.008,193.487,185.379
0.011,0.519,3.095,3.095,208.057,193.463,185.445
0.012,0.615,3.122,3.122,208.114,193.437,185.518
0.014,0.721,3.152,3.152,208.179,193.411,185.598
0.015,0.840,3.186,3.186,208.253,193.383,185.686
0.016,0.972,3.225,3.225,208.338,193.354,185.784
0.018,1.118,3.268,3.268,208.432,193.323,185.890
0.019,1.274,3.318,3.318,208.534,193.291,186.004
0.020,1.438,3.373,3.373,208.643,193.258,186.122
0.022,1.607,3.436,3.436,208.755,193.225,186.243
0.023,1.777,3.502,3.502,208.870,193.191,186.366
0.024,1.947,3.572,3.572,208.984,193.158,186.487
0.026,2.113,3.642,3.642,209.096,193.125,186.605
0.027,2.272,3.711,3.711,209.204,193.093,186.718
0.029,2.422,3.776,3.776,209.305,193.062,186.823
0.030,2.559,3.836,3.836,209.398,193.033,186.919
0.031,2.680,3.888,3.888,209.481,193.005,187.004
0.033,2.784,3.933,3.933,209.551,192.980,187.076
0.034,2.869,3.970,3.970,209.609,192.957,187.134
0.035,2.938,4.002,4.002,209.655,192.936,187.180
0.037,2.992,4.027,4.027,209.691,192.918,187.216
0.038,3.033,4.048,4.048,209.719,192.902,187.242
0.039,3.063,4.064,4.064,209.738,192.888,187.260
0.041,3.084,4.077,4.077,209.751,192.876,187.271
0.042,3.098,4.086,4.086,209.759,192.865,187.277
0.043,3.106,4.093,4.093,209.762,192.857,187.278
0.045,3.113,4.097,4.097,209.762,192.851,187.276
0.046,3.118,4.100,4.100,209.760,192.847,187.273
0.048,3.123,4.101,4.101,209.757,192.845,187.270
0.049,3.127,4.101,4.101,209.755,192.844,187.267
0.050,3.128,4.100,4.100,209.755,192.845,187.265
0.052,3.131,4.099,4.099,209.757,192.846,187.265
0.053,3.137,4.098,4.098,209.763,192.847,187.267
0.054,3.149,4.097,4.097,209.774,192.848,187.271
0.056,3.167,4.098,4.098,209.791,192.848,187.277
0.057,3.192,4.101,4.101,209.815,192.846,187.286
0.058,3.227,4.105,4.105,209.847,192.842,187.297
0.060,3.272,4.113,4.113,209.889,192.835,187.311
0.061,3.328,4.125,4.125,209.941,192.825,187.329
0.063,3.397,4.140,4.140,210.005,192.811,187.350
0.064,3.479,4.158,4.158,210.082,192.792,187.376
0.065,3.576,4.180,4.180,210.171,192.769,187.404
0.067,3.684,4.206,4.206,210.270,192.741,187.436
0.068,3.801,4.235,4.235,210.378,192.711,187.470
0.069,3.923,4.267,4.267,210.490,192.679,187.505
0.071,4.047,4.302,4.302,210.604,192.645,187.541
0.072,4.172,4.340,4.340,210.719,192.611,187.577
0.073,4.293,4.380,4.380,210.830,192.578,187.611
0.075,4.409,4.420,4.420,210.936,192.546,187.644
0.076,4.515,4.459,4.459,211.035,192.516,187.673
0.077,4.610,4.495,4.495,211.122,192.489,187.700
0.079,4.691,4.528,4.528,211.196,192.467,187.721
0.080,4.754,4.554,4.554,211.254,192.449,187.738
0.082,4.799,4.574,4.574,211.296,192.437,187.749
0.083,4.830,4.587,4.587,211.325,192.428,187.757
0.084,4.846,4.593,4.593,211.340,192.424,187.760
0.086,4.851,4.594,4.594,211.345,192.423,187.760
0.087,4.856,4.592,4.592,211.342,192.425,187.758
0.088,4.868,4.585,4.585,211.331,192.429,187.754
0.090,4.886,4.577,4.577,211.315,192.434,187.750
0.091,4.907,4.567,4.567,211.295,192.441,187.745
0.092,4.930,4.556,4.556,211.274,192.448,187.740
0.094,4.953,4.546,4.546,211.253,192.455,187.737
0.095,4.973,4.535,4.535,211.233,192.462,187.735
0.096,4.990,4.525,4.525,211.217,192.468,187.736
0.098,5.003,4.516,4.516,211.206,192.472,187.740
0.099,5.014,4.508,4.508,211.199,192.476,187.747
0.101,5.025,4.501,4.501,211.199,192.478,187.758
0.102,5.042,4.495,4.495,211.206,192.479,187.774
0.103,5.068,4.492,4.492,211.219,192.480,187.795
0.105,5.102,4.489,4.489,211.242,192.479,187.822
0.106,5.147,4.488,4.488,211.273,192.478,187.854
0.107,5.203,4.488,4.488,211.314,192.476,187.893
0.109,5.272,4.488,4.488,211.365,192.474,187.938
0.110,5.354,4.489,4.489,211.428,192.471,187.991
0.111,5.451,4.491,4.491,211.502,192.467,188.052
0.113,5.561,4.492,4.492,211.589,192.462,188.121
0.114,5.684,4.494,4.494,211.685,192.457,188.196
0.115,5.815,4.493,4.493,211.789,192.452,188.277
0.117,5.953,4.491,4.491,211.898,192.446,188.361
0.118,6.094,4.486,4.486,212.010,192.439,188.447
0.120,6.236,4.478,4.478,212.122,192.431,188.534
0.121,6.376,4.465,4.465,212.232,192.423,188.620
0.122,6.512,4.448,4.448,212.338,192.413,188.704
0.124,6.640,4.427,4.427,212.438,192.403,188.784
0.125,6.758,4.403,4.403,212.528,192.393,188.859
0.126,6.864,4.379,4.379,212.608,192.381,188.927
0.128,6.954,4.355,4.355,212.674,192.368,188.988
0.129,7.029,4.333,4.333,212.726,192.355,189.040
0.130,7.089,4.315,4.315,212.765,192.341,189.084
0.132,7.137,4.302,4.302,212.793,192.328,189.120
0.133,7.174,4.294,4.294,212.811,192.315,189.149
0.135,7.200,4.292,4.292,212.820,192.303,189.171
0.136,7.220,4.293,4.293,212.821,192.292,189.187
0.137,7.234,4.298,4.298,212.816,192.284,189.197
0.139,7.246,4.305,4.305,212.806,192.277,189.202
0.140,7.261,4.314,4.314,212.792,192.274,189.201
0.141,7.278,4.324,4.324,212.776,192.273,189.196
0.143,7.298,4.335,4.335,212.758,192.276,189.187
0.144,7.321,4.344,4.344,212.740,192.283,189.173
0.145,7.345,4.352,4.352,212.725,192.292,189.158
0.147,7.367,4.357,4.357,212.715,192.302,189.140
0.148,7.387,4.358,4.358,212.713,192.310,189.123
0.149,7.405,4.355,4.355,212.721,192.316,189.107
0.151,7.430,4.347,4.347,212.742,192.316,189.094
0.152,7.469,4.332,4.332,212.779,192.310,189.085
0.154,7.526,4.311,4.311,212.834,192.296,189.081
0.155,7.606,4.286,4.286,212.910,192.271,189.083
0.156,7.713,4.258,4.258,213.009,192.234,189.093
0.158,7.850,4.229,4.229,213.135,192.183,189.113
0.159,8.021,4.200,4.200,213.290,192.116,189.143
0.160,8.227,4.174,4.174,213.474,192.033,189.183
0.162,8.461,4.152,4.152,213.681,191.936,189.233
0.163,8.714,4.135,4.135,213.904,191.830,189.290
0.164,8.980,4.124,4.124,214.136,191.717,189.351
0.166,9.249,4.116,4.116,214.371,191.600,189.416
0.167,9.515,4.112,4.112,214.601,191.484,189.481
0.168,9.769,4.112,4.112,214.819,191.370,189.544
0.170,10.003,4.114,4.114,215.018,191.264,189.604
0.171,10.209,4.118,4.118,215.192,191.168,189.658
0.173,10.380,4.123,4.123,215.334,191.085,189.705
0.174,10.507,4.129,4.129,215.436,191.019,189.742
0.175,10.584,4.135,4.135,215.493,190.973,189.767
0.177,10.616,4.140,4.140,215.505,190.946,189.780
0.178,10.640,4.143,4.143,215.483,190.937,189.783
0.179,10.686,4.143,4.143,215.437,190.940,189.780
0.181,10.748,4.139,4.139,215.377,190.952,189.770
0.182,10.814,4.132,4.132,215.314,190.970,189.759
0.183,10.874,4.120,4.120,215.259,190.989,189.746
0.185,10.917,4.108,4.108,215.221,191.008,189.735
0.186,10.935,4.099,4.099,215.212,191.020,189.728
0.188,10.964,4.097,4.097,215.240,191.024,189.727
0.189,11.042,4.105,4.105,215.318,191.016,189.735
0.190,11.182,4.128,4.128,215.455,190.991,189.753
0.192,11.394,4.168,4.168,215.659,190.947,189.783
0.193,11.671,4.229,4.229,215.926,190.885,189.826
0.194,12.002,4.310,4.310,216.244,190.808,189.878
0.196,12.376,4.407,4.407,216.602,190.718,189.939
0.197,12.781,4.516,4.516,216.989,190.619,190.007
0.198,13.205,4.635,4.635,217.393,190.514,190.079
0.200,13.636,4.759,4.759,217.803,190.404,190.155
0.201,14.063,4.885,4.885,218.208,190.294,190.232
0.202,14.474,5.010,5.010,218.597,190.185,190.308
0.204,14.857,5.130,5.130,218.958,190.082,190.383
0.205,15.201,5.244,5.244,219.281,189.986,190.453
0.207,15.494,5.352,5.352,219.553,189.900,190.518
0.208,15.728,5.451,5.451,219.768,189.827,190.576
0.209,15.909,5.540,5.540,219.930,189.766,190.628
0.211,16.042,5.619,5.619,220.045,189.716,190.673
0.212,16.136,5.686,5.686,220.119,189.676,190.713
0.213,16.198,5.740,5.740,220.159,189.643,190.748
0.215,16.239,5.781,5.781,220.170,189.619,190.779
0.216,16.274,5.812,5.812,220.158,189.600,190.807
0.217,16.314,5.833,5.833,220.130,189.586,190.831
0.219,16.359,5.846,5.846,220.091,189.577,190.853
0.220,16.407,5.852,5.852,220.048,189.571,190.872
0.221,16.452,5.852,5.852,220.007,189.566,190.890
0.223,16.490,5.848,5.848,219.973,189.562,190.908
0.224,16.519,5.842,5.842,219.950,189.557,190.925
0.226,16.541,5.834,5.834,219.937,189.552,190.942
0.227,16.562,5.826,5.826,219.932,189.544,190.961
0.228,16.585,5.820,5.820,219.935,189.534,190.981
0.230,16.612,5.817,5.817,219.944,189.521,191.003
0.231,16.646,5.819,5.819,219.958,189.503,191.029
0.232,16.688,5.826,5.826,219.977,189.480,191.057
0.234,16.736,5.841,5.841,219.998,189.451,191.090
0.235,16.793,5.862,5.862,220.021,189.415,191.128
0.236,16.858,5.887,5.887,220.045,189.372,191.171
0.238,16.933,5.916,5.916,220.069,189.321,191.220
0.239,17.018,5.946,5.946,220.091,189.261,191.275
0.240,17.112,5.976,5.976,220.112,189.193,191.336
0.242,17.213,6.004,6.004,220.131,189.118,191.402
0.243,17.319,6.030,6.030,220.149,189.039,191.471
0.245,17.429,6.052,6.051,220.167,188.958,191.542
0.246,17.539,6.071,6.070,220.184,188.876,191.614
0.247,17.649,6.086,6.085,220.201,188.794,191.686
0.249,17.756,6.098,6.097,220.218,188.715,191.755
0.250,17.858,6.107,6.106,220.235,188.640,191.822
0.251,17.953,6.114,6.113,220.253,188.571,191.885
0.253,18.039,6.117,6.117,220.271,188.509,191.942
0.254,18.113,6.117,6.119,220.291,188.458,191.992
0.255,18.176,6.116,6.119,220.312,188.417,192.035
0.257,18.228,6.114,6.118,220.333,188.385,192.071
0.258,18.271,6.113,6.117,220.355,188.363,192.100
0.260,18.307,6.112,6.117,220.377,188.349,192.124
0.261,18.336,6.114,6.118,220.398,188.341,192.143
0.262,18.362,6.119,6.120,220.419,188.339,192.157
0.264,18.384,6.129,6.126,220.439,188.342,192.168
0.265,18.405,6.142,6.133,220.456,188.349,192.177
0.266,18.424,6.157,6.143,220.472,188.358,192.183
0.268,18.442,6.174,6.154,220.485,188.369,192.187
0.269,18.457,6.192,6.166,220.496,188.380,192.191
0.270,18.471,6.208,6.178,220.503,188.391,192.195
0.272,18.482,6.223,6.191,220.507,188.400,192.199
0.273,18.492,6.235,6.204,220.509,188.409,192.204
0.274,18.502,6.244,6.216,220.511,188.416,192.210
0.276,18.511,6.248,6.227,220.513,188.423,192.215
0.277,18.520,6.250,6.236,220.517,188.428,192.222
0.279,18.530,6.247,6.244,220.524,188.432,192.228
0.280,18.544,6.242,6.250,220.535,188.436,192.236
0.281,18.563,6.233,6.253,220.552,188.438,192.243
0.283,18.588,6.221,6.255,220.576,188.439,192.252
0.284,18.621,6.206,6.253,220.608,188.439,192.261
0.285,18.663,6.188,6.248,220.648,188.438,192.270
0.287,18.715,6.167,6.239,220.699,188.437,192.281
0.288,18.778,6.142,6.227,220.761,188.434,192.291
0.289,18.850,6.115,6.210,220.833,188.429,192.302
0.291,18.933,6.085,6.188,220.914,188.424,192.313
0.292,19.025,6.051,6.161,221.005,188.416,192.324
0.293,19.126,6.015,6.129,221.105,188.407,192.335
0.295,19.236,5.976,6.091,221.214,188.396,192.345
0.296,19.354,5.934,6.048,221.331,188.382,192.355
0.298,19.481,5.888,6.002,221.457,188.366,192.364
0.299,19.615,5.841,5.952,221.590,188.347,192.371
0.300,19.757,5.790,5.901,221.730,188.325,192.378
0.302,19.907,5.737,5.847,221.877,188.300,192.383
0.303,20.063,5.681,5.793,222.031,188.272,192.386
0.304,20.225,5.623,5.739,222.190,188.242,192.388
0.306,20.391,5.564,5.686,222.352,188.208,192.389
0.307,20.560,5.505,5.633,222.518,188.173,192.388
0.308,20.731,5.449,5.581,222.685,188.136,192.386
0.310,20.903,5.396,5.531,222.852,188.098,192.384
0.311,21.073,5.349,5.483,223.018,188.059,192.380
0.313,21.241,5.309,5.437,223.182,188.020,192.376
0.314,21.406,5.278,5.394,223.341,187.981,192.371
0.315,21.565,5.255,5.354,223.496,187.943,192.365
0.317,21.718,5.238,5.316,223.644,187.906,192.359
0.318,21.864,5.225,5.282,223.785,187.870,192.353
0.319,22.001,5.213,5.251,223.918,187.835,192.347
0.321,22.132,5.202,5.224,224.044,187.802,192.341
0.322,22.256,5.188,5.200,224.164,187.769,192.333
0.323,22.376,5.170,5.180,224.279,187.736,192.325
0.325,22.493,5.146,5.164,224.390,187.702,192.315
0.326,22.608,5.116,5.150,224.499,187.667,192.304
0.327,22.722,5.084,5.139,224.607,187.631,192.291
0.329,22.837,5.049,5.129,224.715,187.593,192.276
0.330,22.954,5.013,5.119,224.823,187.552,192.259
0.332,23.075,4.978,5.109,224.933,187.508,192.240
0.333,23.200,4.944,5.098,225.046,187.461,192.217
0.334,23.330,4.914,5.084,225.164,187.409,192.192
0.336,23.467,4.887,5.069,225.285,187.354,192.164
0.337,23.607,4.864,5.053,225.409,187.295,192.134
0.338,23.750,4.844,5.035,225.535,187.235,192.102
0.340,23.895,4.827,5.018,225.662,187.173,192.069
0.341,24.041,4.814,5.000,225.789,187.110,192.035
0.342,24.185,4.804,4.984,225.914,187.047,192.000
0.344,24.327,4.796,4.970,226.037,186.985,191.966
0.345,24.465,4.792,4.957,226.156,186.924,191.933
0.346,24.598,4.791,4.947,226.271,186.866,191.901
0.348,24.724,4.792,4.938,226.381,186.811,191.871
0.349,24.843,4.797,4.932,226.484,186.760,191.843
0.351,24.953,4.804,4.929,226.581,186.712,191.817
0.352,25.055,4.814,4.928,226.670,186.669,191.794
0.353,25.151,4.827,4.929,226.753,186.628,191.772
0.355,25.240,4.842,4.933,226.831,186.589,191.750
0.356,25.326,4.859,4.939,226.905,186.551,191.729
0.357,25.408,4.875,4.947,226.975,186.513,191.707
0.359,25.489,4.889,4.955,227.041,186.475,191.684
0.360,25.569,4.899,4.963,227.106,186.434,191.659
0.361,25.650,4.902,4.970,227.169,186.391,191.631
0.363,25.734,4.898,4.976,227.232,186.345,191.600
0.364,25.822,4.883,4.980,227.294,186.293,191.565
0.365,25.916,4.860,4.981,227.357,186.237,191.525
0.367,26.016,4.830,4.980,227.421,186.175,191.480
0.368,26.119,4.797,4.976,227.485,186.110,191.432
0.370,26.224,4.764,4.970,227.547,186.042,191.382
0.371,26.327,4.735,4.962,227.607,185.974,191.331
0.372,26.428,4.712,4.951,227.662,185.908,191.280
0.374,26.523,4.699,4.939,227.712,185.844,191.230
0.375,26.609,4.699,4.925,227.756,185.785,191.184
0.376,26.686,4.710,4.910,227.792,185.733,191.142
0.378,26.749,4.729,4.894,227.818,185.688,191.105
0.379,26.798,4.753,4.880,227.835,185.654,191.075
0.380,26.830,4.781,4.866,227.840,185.631,191.052
0.382,26.849,4.809,4.855,227.832,185.621,191.039
0.383,26.868,4.834,4.847,227.813,185.622,191.034
0.385,26.894,4.853,4.843,227.789,185.632,191.037
0.386,26.925,4.866,4.842,227.761,185.645,191.045
0.387,26.956,4.871,4.843,227.736,185.658,191.057
0.389,26.982,4.868,4.844,227.717,185.667,191.071
0.390,27.000,4.856,4.842,227.707,185.668,191.086
0.391,27.018,4.834,4.837,227.712,185.658,191.100
0.393,27.054,4.802,4.825,227.736,185.633,191.112
0.394,27.119,4.758,4.806,227.782,185.588,191.120
0.395,27.219,4.705,4.777,227.855,185.521,191.121
0.397,27.359,4.643,4.742,227.959,185.426,191.116
0.398,27.545,4.578,4.701,228.097,185.302,191.102
0.399,27.771,4.513,4.658,228.265,185.153,191.080
0.401,28.028,4.452,4.615,228.455,184.983,191.052
0.402,28.308,4.399,4.573,228.663,184.798,191.020
0.404,28.602,4.357,4.536,228.882,184.604,190.984
0.405,28.903,4.330,4.505,229.105,184.406,190.946
0.406,29.202,4.318,4.481,229.327,184.210,190.908
0.408,29.489,4.318,4.462,229.541,184.021,190.871
0.409,29.758,4.327,4.449,229.741,183.845,190.837
0.410,29.999,4.342,4.440,229.920,183.687,190.806
0.412,30.204,4.359,4.435,230.073,183.553,190.781
0.413,30.364,4.376,4.432,230.193,183.447,190.763
0.414,30.477,4.390,4.432,230.277,183.374,190.752
0.416,30.548,4.399,4.432,230.331,183.328,190.747
0.417,30.584,4.403,4.434,230.359,183.304,190.747
0.418,30.594,4.403,4.436,230.366,183.299,190.749
0.420,30.606,4.400,4.439,230.359,183.308,190.754
0.421,30.632,4.395,4.441,230.341,183.326,190.758
0.423,30.663,4.388,4.443,230.318,183.348,190.761
0.424,30.695,4.381,4.445,230.296,183.370,190.761
0.425,30.719,4.374,4.446,230.280,183.388,190.757
0.427,30.733,4.368,4.446,230.275,183.396,190.747
0.428,30.754,4.363,4.445,230.286,183.390,190.730
0.429,30.802,4.361,4.446,230.318,183.365,190.704
0.431,30.879,4.361,4.447,230.372,183.322,190.670
0.432,30.981,4.365,4.449,230.444,183.263,190.628
0.433,31.103,4.373,4.453,230.530,183.190,190.582
0.435,31.240,4.386,4.459,230.627,183.108,190.531
0.436,31.387,4.403,4.468,230.732,183.019,190.479
0.438,31.539,4.424,4.478,230.840,182.925,190.426
0.439,31.693,4.447,4.489,230.949,182.831,190.375
0.440,31.841,4.470,4.501,231.054,182.738,190.326
0.442,31.981,4.493,4.513,231.153,182.649,190.281
0.443,32.106,4.514,4.523,231.240,182.569,190.243
0.444,32.212,4.532,4.533,231.314,182.499,190.212
0.446,32.295,4.545,4.540,231.371,182.442,190.191
0.447,32.357,4.555,4.546,231.412,182.397,190.178
0.448,32.401,4.561,4.550,231.440,182.364,190.172
0.450,32.431,4.564,4.554,231.457,182.340,190.173
0.451,32.451,4.566,4.557,231.467,182.323,190.178
0.452,32.466,4.567,4.561,231.471,182.313,190.188
0.454,32.480,4.568,4.566,231.473,182.308,190.202
0.455,32.495,4.570,4.572,231.475,182.305,190.217
0.457,32.512,4.572,4.579,231.479,182.305,190.232
0.458,32.530,4.575,4.587,231.489,182.304,190.248
0.459,32.553,4.579,4.595,231.507,182.302,190.263
0.461,32.584,4.582,4.602,231.535,182.296,190.275
0.462,32.626,4.585,4.609,231.575,182.287,190.283
0.463,32.678,4.587,4.614,231.625,182.274,190.289
0.465,32.737,4.587,4.616,231.682,182.259,190.293
0.466,32.802,4.586,4.616,231.743,182.241,190.293
0.467,32.869,4.584,4.614,231.808,182.222,190.292
0.469,32.936,4.581,4.609,231.872,182.203,190.288
0.470,33.002,4.576,4.601,231.934,182.183,190.282
0.471,33.062,4.571,4.593,231.992,182.165,190.275
0.473,33.116,4.564,4.583,232.042,182.148,190.267
0.474,33.160,4.558,4.571,232.083,182.133,190.257
0.476,33.193,4.551,4.559,232.111,182.122,190.246
0.477,33.213,4.545,4.547,232.126,182.114,190.235
0.478,33.225,4.538,4.535,232.126,182.109,190.223
0.480,33.240,4.532,4.525,232.117,182.108,190.212
0.481,33.259,4.526,4.517,232.101,182.109,190.202
0.482,33.279,4.522,4.512,232.082,182.111,190.193
0.484,33.299,4.518,4.512,232.064,182.114,190.187
0.485,33.313,4.516,4.517,232.051,182.117,190.183
0.486,33.319,4.515,4.527,232.045,182.119,190.183
0.488,33.326,4.514,4.541,232.051,182.119,190.187
0.489,33.349,4.515,4.557,232.072,182.117,190.197
0.490,33.392,4.515,4.573,232.112,182.112,190.211
0.492,33.458,4.514,4.588,232.174,182.102,190.232
0.493,33.551,4.512,4.599,232.262,182.088,190.259
0.495,33.667,4.508,4.604,232.371,182.070,190.292
0.496,33.800,4.502,4.603,232.497,182.050,190.331
0.497,33.946,4.494,4.595,232.635,182.029,190.374
0.499,34.098,4.484,4.583,232.778,182.008,190.421
0.500,34.252,4.472,4.568,232.922,181.989,190.471
0.501,34.401,4.457,4.553,233.061,181.972,190.523
0.503,34.542,4.441,4.539,233.190,181.960,190.577
0.504,34.667,4.423,4.529,233.304,181.953,190.631
0.505,34.775,4.404,4.524,233.396,181.953,190.685
0.507,34.860,4.383,4.525,233.462,181.961,190.738
0.508,34.924,4.362,4.530,233.497,181.978,190.789
0.510,34.979,4.342,4.537,233.498,182.005,190.838
0.511,35.040,4.323,4.546,233.474,182.038,190.882
0.512,35.106,4.308,4.553,233.432,182.073,190.920
0.514,35.173,4.296,4.557,233.382,182.106,190.950
0.515,35.232,4.290,4.556,233.334,182.132,190.972
0.516,35.276,4.289,4.548,233.294,182.148,190.982
0.518,35.296,4.294,4.535,233.274,182.149,190.980
0.519,35.321,4.304,4.517,233.281,182.132,190.964
0.520,35.388,4.317,4.496,233.325,182.092,190.933
0.522,35.509,4.334,4.472,233.414,182.026,190.884
0.523,35.695,4.352,4.448,233.557,181.929,190.816
0.524,35.955,4.373,4.424,233.763,181.797,190.727
0.526,36.287,4.394,4.402,234.031,181.632,190.621
0.527,36.678,4.415,4.384,234.352,181.440,190.505
0.529,37.114,4.434,4.371,234.714,181.228,190.386
0.530,37.581,4.450,4.366,235.107,181.003,190.272
0.531,38.066,4.463,4.370,235.520,180.772,190.170
0.533,38.555,4.470,4.387,235.944,180.541,190.088
0.534,39.037,4.471,4.417,236.367,180.318,190.033
0.535,39.499,4.465,4.463,236.778,180.109,190.013
0.537,39.932,4.450,4.527,237.168,179.922,190.036
0.538,40.330,4.432,4.604,237.526,179.762,190.108
0.539,40.692,4.414,4.691,237.840,179.637,190.238
0.541,41.029,4.402,4.783,238.102,179.553,190.432
0.542,41.361,4.401,4.875,238.313,179.507,190.684
0.543,41.705,4.416,4.963,238.479,179.495,190.985
0.545,42.067,4.452,5.043,238.606,179.511,191.324
0.546,42.449,4.512,5.110,238.699,179.549,191.692
0.548,42.845,4.597,5.165,238.765,179.605,192.078
0.549,43.248,4.700,5.209,238.808,179.671,192.474
0.550,43.649,4.813,5.246,238.836,179.744,192.867
0.552,44.039,4.930,5.281,238.854,179.817,193.249
0.553,44.406,5.044,5.314,238.867,179.885,193.610
0.554,44.741,5.149,5.351,238.883,179.942,193.940
