"T","Distance","Radius","FreeRadius","X","Y","Z"
0.000,0.000,2.266,2.266,74.790,-51.006,-2.607
0.001,0.259,2.413,2.413,74.637,-51.082,-2.801
0.003,0.516,2.559,2.559,74.485,-51.158,-2.994
0.004,0.768,2.702,2.702,74.337,-51.232,-3.184
0.005,1.013,2.841,2.841,74.192,-51.303,-3.368
0.007,1.248,2.975,2.975,74.054,-51.371,-3.546
0.008,1.471,3.102,3.102,73.922,-51.435,-3.714
0.009,1.679,3.221,3.221,73.800,-51.493,-3.872
0.011,1.871,3.331,3.331,73.687,-51.546,-4.018
0.012,2.043,3.431,3.431,73.586,-51.592,-4.150
0.013,2.194,3.520,3.520,73.498,-51.629,-4.266
0.015,2.320,3.599,3.599,73.425,-51.659,-4.365
0.016,2.421,3.668,3.668,73.367,-51.679,-4.445
0.017,2.496,3.726,3.726,73.325,-51.689,-4.506
0.019,2.548,3.773,3.773,73.296,-51.689,-4.550
0.020,2.582,3.809,3.809,73.279,-51.680,-4.578
0.021,2.607,3.835,3.835,73.272,-51.662,-4.594
0.023,2.635,3.850,3.850,73.273,-51.635,-4.598
0.024,2.672,3.859,3.859,73.280,-51.599,-4.593
0.026,2.720,3.861,3.861,73.291,-51.554,-4.581
0.027,2.778,3.858,3.858,73.304,-51.501,-4.563
0.028,2.844,3.854,3.854,73.317,-51.439,-4.541
0.030,2.919,3.848,3.848,73.329,-51.369,-4.518
0.031,3.001,3.843,3.843,73.337,-51.291,-4.495
0.032,3.088,3.841,3.841,73.340,-51.206,-4.475
0.034,3.179,3.842,3.842,73.339,-51.116,-4.459
0.035,3.270,3.847,3.847,73.333,-51.026,-4.449
0.036,3.357,3.857,3.857,73.324,-50.939,-4.448
0.038,3.439,3.873,3.873,73.312,-50.859,-4.457
0.039,3.515,3.895,3.895,73.298,-50.788,-4.479
0.040,3.585,3.926,3.926,73.282,-50.730,-4.515
0.042,3.654,3.965,3.965,73.265,-50.690,-4.568
0.043,3.730,4.013,4.013,73.248,-50.670,-4.640
0.044,3.825,4.068,4.068,73.230,-50.674,-4.733
0.046,3.946,4.132,4.132,73.214,-50.705,-4.849
0.047,4.100,4.204,4.204,73.198,-50.767,-4.989
0.048,4.288,4.282,4.282,73.184,-50.858,-5.153
0.050,4.502,4.368,4.368,73.171,-50.972,-5.334
0.051,4.738,4.461,4.461,73.160,-51.106,-5.527
0.052,4.987,4.559,4.559,73.149,-51.252,-5.729
0.054,5.244,4.659,4.659,73.140,-51.407,-5.934
0.055,5.501,4.760,4.760,73.132,-51.566,-6.136
0.056,5.752,4.856,4.856,73.124,-51.722,-6.332
0.058,5.988,4.947,4.947,73.117,-51.870,-6.515
0.059,6.203,5.028,5.028,73.111,-52.006,-6.682
0.060,6.391,5.098,5.098,73.105,-52.125,-6.827
0.062,6.543,5.153,5.153,73.100,-52.220,-6.945
0.063,6.655,5.193,5.193,73.096,-52.290,-7.034
0.064,6.733,5.222,5.222,73.092,-52.336,-7.096
0.066,6.781,5.240,5.240,73.089,-52.363,-7.135
0.067,6.804,5.250,5.250,73.087,-52.374,-7.156
0.068,6.810,5.253,5.253,73.086,-52.372,-7.162
0.070,6.822,5.250,5.250,73.088,-52.361,-7.156
0.071,6.843,5.245,5.245,73.091,-52.344,-7.144
0.072,6.868,5.238,5.238,73.097,-52.326,-7.129
0.074,6.892,5.231,5.231,73.106,-52.309,-7.114
0.075,6.911,5.226,5.226,73.117,-52.297,-7.104
0.077,6.925,5.225,5.225,73.131,-52.294,-7.103
0.078,6.948,5.228,5.228,73.149,-52.303,-7.113
0.079,6.985,5.239,5.239,73.169,-52.324,-7.136
0.081,7.036,5.258,5.258,73.191,-52.355,-7.171
0.082,7.099,5.288,5.288,73.213,-52.394,-7.215
0.083,7.171,5.325,5.325,73.234,-52.438,-7.268
0.085,7.250,5.367,5.367,73.252,-52.485,-7.328
0.086,7.334,5.410,5.410,73.268,-52.534,-7.395
0.087,7.420,5.452,5.452,73.279,-52.582,-7.466
0.089,7.507,5.488,5.488,73.284,-52.628,-7.540
0.090,7.593,5.516,5.516,73.283,-52.668,-7.616
0.091,7.678,5.532,5.532,73.273,-52.701,-7.693
0.093,7.760,5.535,5.535,73.254,-52.726,-7.769
0.094,7.841,5.526,5.526,73.225,-52.739,-7.844
0.095,7.922,5.509,5.509,73.188,-52.744,-7.916
0.097,8.005,5.486,5.486,73.144,-52.741,-7.986
0.098,8.088,5.459,5.459,73.095,-52.731,-8.053
0.099,8.173,5.430,5.430,73.043,-52.715,-8.117
0.101,8.257,5.403,5.403,72.988,-52.696,-8.177
0.102,8.339,5.378,5.378,72.933,-52.673,-8.234
0.103,8.418,5.357,5.357,72.878,-52.648,-8.286
0.105,8.493,5.339,5.339,72.826,-52.623,-8.334
0.106,8.562,5.325,5.325,72.779,-52.598,-8.377
0.107,8.623,5.312,5.312,72.736,-52.576,-8.415
0.109,8.675,5.302,5.302,72.701,-52.557,-8.447
0.110,8.717,5.294,5.294,72.673,-52.540,-8.474
0.111,8.752,5.288,5.288,72.650,-52.527,-8.497
0.113,8.779,5.282,5.282,72.633,-52.517,-8.516
0.114,8.800,5.278,5.278,72.620,-52.510,-8.531
0.115,8.817,5.275,5.275,72.610,-52.505,-8.543
0.117,8.829,5.272,5.272,72.603,-52.502,-8.553
0.118,8.839,5.270,5.270,72.597,-52.502,-8.561
0.119,8.847,5.268,5.268,72.592,-52.503,-8.567
0.121,8.856,5.267,5.267,72.587,-52.505,-8.573
0.122,8.865,5.265,5.265,72.581,-52.510,-8.579
0.123,8.877,5.264,5.264,72.573,-52.515,-8.585
0.125,8.890,5.262,5.262,72.563,-52.521,-8.592
0.126,8.905,5.259,5.259,72.551,-52.527,-8.599
0.128,8.920,5.255,5.255,72.540,-52.534,-8.605
0.129,8.933,5.251,5.251,72.529,-52.539,-8.611
0.130,8.944,5.244,5.244,72.520,-52.544,-8.616
0.132,8.951,5.236,5.236,72.514,-52.546,-8.619
0.133,8.954,5.227,5.227,72.512,-52.547,-8.620
0.134,8.958,5.216,5.216,72.515,-52.544,-8.618
0.136,8.969,5.206,5.206,72.524,-52.538,-8.614
0.137,8.990,5.198,5.198,72.539,-52.528,-8.606
0.138,9.020,5.192,5.192,72.563,-52.514,-8.593
0.140,9.061,5.189,5.189,72.595,-52.495,-8.577
0.141,9.109,5.191,5.191,72.634,-52.474,-8.558
0.142,9.159,5.198,5.198,72.673,-52.451,-8.538
0.144,9.206,5.210,5.210,72.711,-52.430,-8.520
0.145,9.245,5.222,5.222,72.743,-52.413,-8.504
0.146,9.271,5.231,5.231,72.764,-52.402,-8.494
0.148,9.279,5.235,5.235,72.772,-52.399,-8.492
0.149,9.294,5.231,5.231,72.761,-52.408,-8.498
0.150,9.337,5.215,5.215,72.728,-52.429,-8.516
0.152,9.413,5.184,5.184,72.669,-52.466,-8.547
0.153,9.527,5.137,5.137,72.580,-52.520,-8.593
0.154,9.684,5.077,5.077,72.458,-52.595,-8.657
0.156,9.884,5.006,5.006,72.301,-52.689,-8.737
0.157,10.119,4.929,4.929,72.116,-52.801,-8.831
0.158,10.383,4.849,4.849,71.910,-52.926,-8.935
0.160,10.666,4.771,4.771,71.687,-53.063,-9.045
0.161,10.962,4.696,4.696,71.455,-53.207,-9.157
0.162,11.262,4.630,4.630,71.218,-53.356,-9.268
0.164,11.560,4.573,4.573,70.984,-53.506,-9.374
0.165,11.847,4.526,4.526,70.758,-53.655,-9.472
0.166,12.117,4.487,4.487,70.547,-53.799,-9.557
0.168,12.362,4.457,4.457,70.356,-53.935,-9.627
0.169,12.574,4.435,4.435,70.191,-54.059,-9.676
0.170,12.750,4.421,4.421,70.057,-54.171,-9.704
0.172,12.894,4.416,4.416,69.952,-54.269,-9.713
0.173,13.012,4.418,4.418,69.871,-54.354,-9.709
0.174,13.110,4.424,4.424,69.807,-54.427,-9.699
0.176,13.190,4.432,4.432,69.758,-54.489,-9.686
0.177,13.257,4.439,4.439,69.717,-54.542,-9.677
0.179,13.314,4.443,4.443,69.680,-54.585,-9.678
0.180,13.368,4.440,4.440,69.641,-54.620,-9.693
0.181,13.432,4.427,4.427,69.597,-54.647,-9.730
0.183,13.518,4.402,4.402,69.541,-54.668,-9.792
0.184,13.637,4.366,4.366,69.470,-54.684,-9.886
0.185,13.798,4.323,4.323,69.377,-54.695,-10.017
0.187,14.001,4.280,4.280,69.263,-54.701,-10.185
0.188,14.240,4.239,4.239,69.131,-54.705,-10.383
0.189,14.506,4.206,4.206,68.985,-54.705,-10.606
0.191,14.791,4.186,4.186,68.829,-54.702,-10.845
0.192,15.089,4.183,4.183,68.666,-54.698,-11.094
0.193,15.391,4.201,4.201,68.501,-54.691,-11.347
0.195,15.690,4.236,4.236,68.338,-54.683,-11.597
0.196,15.977,4.285,4.285,68.179,-54.675,-11.837
0.197,16.246,4.341,4.341,68.030,-54.666,-12.060
0.199,16.488,4.402,4.402,67.894,-54.657,-12.259
0.200,16.695,4.463,4.463,67.775,-54.649,-12.429
0.201,16.863,4.519,4.519,67.675,-54.642,-12.564
0.203,16.994,4.565,4.565,67.594,-54.637,-12.667
0.204,17.094,4.601,4.601,67.528,-54.632,-12.742
0.205,17.170,4.628,4.628,67.476,-54.630,-12.796
0.207,17.226,4.647,4.647,67.433,-54.629,-12.833
0.208,17.268,4.661,4.661,67.399,-54.631,-12.858
0.209,17.303,4.670,4.670,67.370,-54.635,-12.876
0.211,17.334,4.677,4.677,67.343,-54.642,-12.891
0.212,17.368,4.684,4.684,67.317,-54.652,-12.910
0.213,17.409,4.691,4.691,67.287,-54.665,-12.936
0.215,17.464,4.700,4.700,67.253,-54.681,-12.974
0.216,17.537,4.711,4.711,67.211,-54.701,-13.031
0.217,17.629,4.726,4.726,67.161,-54.725,-13.105
0.219,17.738,4.743,4.743,67.103,-54.750,-13.193
0.220,17.858,4.765,4.765,67.041,-54.777,-13.292
0.221,17.987,4.792,4.792,66.974,-54.805,-13.399
0.223,18.120,4.825,4.825,66.905,-54.833,-13.509
0.224,18.254,4.862,4.862,66.834,-54.860,-13.619
0.226,18.384,4.903,4.903,66.764,-54.884,-13.726
0.227,18.507,4.946,4.946,66.694,-54.906,-13.826
0.228,18.619,4.989,4.989,66.628,-54.924,-13.914
0.230,18.717,5.031,5.031,66.567,-54.938,-13.989
0.231,18.797,5.070,5.070,66.510,-54.946,-14.045
0.232,18.858,5.104,5.104,66.461,-54.949,-14.082
0.234,18.906,5.132,5.132,66.417,-54.947,-14.100
0.235,18.945,5.154,5.154,66.378,-54.944,-14.105
0.236,18.981,5.170,5.170,66.343,-54.941,-14.099
0.238,19.016,5.180,5.180,66.311,-54.940,-14.086
0.239,19.051,5.183,5.183,66.280,-54.944,-14.068
0.240,19.087,5.180,5.180,66.250,-54.955,-14.051
0.242,19.126,5.171,5.171,66.220,-54.974,-14.036
0.243,19.171,5.155,5.155,66.189,-55.004,-14.027
0.244,19.226,5.134,5.134,66.155,-55.048,-14.029
0.246,19.296,5.108,5.108,66.118,-55.106,-14.044
0.247,19.388,5.079,5.079,66.076,-55.182,-14.075
0.248,19.501,5.048,5.048,66.031,-55.274,-14.122
0.250,19.632,5.015,5.015,65.982,-55.379,-14.183
0.251,19.777,4.984,4.984,65.931,-55.495,-14.254
0.252,19.933,4.953,4.953,65.880,-55.619,-14.333
0.254,20.095,4.926,4.926,65.828,-55.747,-14.417
0.255,20.260,4.900,4.900,65.778,-55.878,-14.503
0.256,20.423,4.877,4.877,65.730,-56.008,-14.589
0.258,20.580,4.855,4.855,65.686,-56.135,-14.671
0.259,20.727,4.834,4.834,65.647,-56.255,-14.747
0.260,20.861,4.813,4.813,65.613,-56.366,-14.814
0.262,20.977,4.792,4.792,65.585,-56.465,-14.868
0.263,21.074,4.770,4.770,65.565,-56.550,-14.910
0.264,21.154,4.747,4.747,65.550,-56.623,-14.940
0.266,21.222,4.725,4.725,65.539,-56.686,-14.960
0.267,21.279,4.704,4.704,65.529,-56.741,-14.974
0.268,21.330,4.686,4.685,65.519,-56.790,-14.983
0.270,21.378,4.671,4.671,65.507,-56.836,-14.989
0.271,21.425,4.661,4.661,65.490,-56.879,-14.996
0.272,21.475,4.658,4.658,65.468,-56.923,-15.005
0.274,21.533,4.661,4.661,65.437,-56.970,-15.018
0.275,21.601,4.669,4.670,65.396,-57.021,-15.038
0.277,21.684,4.681,4.683,65.344,-57.079,-15.068
0.278,21.787,4.694,4.697,65.278,-57.145,-15.109
0.279,21.907,4.707,4.711,65.199,-57.220,-15.161
0.281,22.042,4.715,4.721,65.110,-57.301,-15.222
0.282,22.189,4.719,4.726,65.012,-57.388,-15.289
0.283,22.345,4.715,4.723,64.909,-57.479,-15.362
0.285,22.505,4.703,4.712,64.803,-57.572,-15.437
0.286,22.667,4.684,4.694,64.695,-57.666,-15.514
0.287,22.827,4.661,4.671,64.589,-57.760,-15.589
0.289,22.983,4.635,4.645,64.486,-57.851,-15.661
0.290,23.130,4.609,4.617,64.389,-57.939,-15.728
0.291,23.265,4.584,4.590,64.301,-58.022,-15.788
0.293,23.385,4.563,4.564,64.223,-58.099,-15.838
0.294,23.490,4.547,4.543,64.157,-58.168,-15.879
0.295,23.580,4.536,4.525,64.101,-58.232,-15.910
0.297,23.659,4.529,4.512,64.053,-58.291,-15.933
0.298,23.729,4.523,4.502,64.012,-58.346,-15.950
0.299,23.794,4.519,4.497,63.977,-58.398,-15.960
0.301,23.855,4.515,4.496,63.944,-58.450,-15.966
0.302,23.915,4.509,4.498,63.913,-58.501,-15.970
0.303,23.977,4.500,4.504,63.881,-58.554,-15.971
0.305,24.042,4.488,4.514,63.848,-58.610,-15.971
0.306,24.112,4.473,4.526,63.810,-58.669,-15.971
0.307,24.189,4.459,4.540,63.767,-58.734,-15.973
0.309,24.276,4.447,4.554,63.717,-58.804,-15.978
0.310,24.373,4.437,4.569,63.659,-58.881,-15.986
0.311,24.479,4.433,4.582,63.596,-58.965,-15.999
0.313,24.593,4.435,4.593,63.529,-59.056,-16.018
0.314,24.717,4.446,4.601,63.458,-59.155,-16.043
0.315,24.850,4.464,4.606,63.385,-59.261,-16.075
0.317,24.991,4.487,4.608,63.311,-59.374,-16.115
0.318,25.141,4.513,4.608,63.238,-59.495,-16.164
0.319,25.300,4.539,4.607,63.166,-59.625,-16.223
0.321,25.470,4.564,4.605,63.096,-59.762,-16.293
0.322,25.649,4.585,4.601,63.031,-59.908,-16.374
0.323,25.840,4.601,4.597,62.971,-60.063,-16.468
0.325,26.042,4.608,4.594,62.916,-60.226,-16.575
0.326,26.253,4.610,4.589,62.866,-60.394,-16.692
0.328,26.470,4.605,4.584,62.821,-60.566,-16.817
0.329,26.692,4.596,4.578,62.779,-60.740,-16.949
0.330,26.916,4.583,4.570,62.740,-60.913,-17.085
0.332,27.138,4.568,4.561,62.703,-61.083,-17.223
0.333,27.357,4.551,4.549,62.668,-61.248,-17.362
0.334,27.568,4.533,4.535,62.634,-61.406,-17.499
0.336,27.771,4.515,4.520,62.600,-61.554,-17.633
0.337,27.961,4.499,4.504,62.565,-61.690,-17.760
0.338,28.136,4.485,4.489,62.529,-61.813,-17.880
0.340,28.294,4.473,4.477,62.492,-61.920,-17.991
0.341,28.436,4.466,4.468,62.452,-62.011,-18.092
0.342,28.564,4.464,4.464,62.410,-62.090,-18.184
0.344,28.680,4.467,4.467,62.367,-62.156,-18.269
0.345,28.786,4.477,4.477,62.322,-62.211,-18.346
0.346,28.883,4.492,4.493,62.275,-62.258,-18.418
0.348,28.974,4.513,4.515,62.226,-62.297,-18.484
0.349,29.060,4.537,4.540,62.176,-62.331,-18.545
0.350,29.143,4.565,4.568,62.124,-62.360,-18.603
0.352,29.224,4.596,4.598,62.071,-62.386,-18.658
0.353,29.304,4.628,4.629,62.017,-62.411,-18.711
0.354,29.384,4.661,4.659,61.961,-62.437,-18.762
0.356,29.465,4.694,4.688,61.903,-62.463,-18.813
0.357,29.548,4.726,4.716,61.845,-62.491,-18.865
0.358,29.634,4.756,4.743,61.786,-62.521,-18.920
0.360,29.723,4.784,4.769,61.727,-62.553,-18.978
0.361,29.817,4.808,4.795,61.667,-62.587,-19.042
0.362,29.915,4.827,4.819,61.608,-62.624,-19.111
0.364,30.021,4.841,4.844,61.548,-62.664,-19.189
0.365,30.134,4.850,4.867,61.489,-62.706,-19.275
0.366,30.256,4.854,4.890,61.431,-62.752,-19.373
0.368,30.388,4.856,4.914,61.374,-62.801,-19.481
0.369,30.533,4.858,4.938,61.319,-62.854,-19.604
0.370,30.690,4.863,4.963,61.264,-62.911,-19.740
0.372,30.858,4.871,4.989,61.211,-62.970,-19.888
0.373,31.035,4.886,5.017,61.158,-63.030,-20.046
0.374,31.219,4.910,5.047,61.105,-63.088,-20.212
0.376,31.406,4.941,5.078,61.052,-63.143,-20.382
0.377,31.594,4.977,5.110,60.997,-63.193,-20.555
0.379,31.781,5.017,5.142,60.940,-63.237,-20.728
0.380,31.965,5.056,5.172,60.881,-63.272,-20.899
0.381,32.143,5.093,5.199,60.819,-63.297,-21.064
0.383,32.315,5.125,5.222,60.754,-63.310,-21.222
0.384,32.479,5.150,5.241,60.684,-63.308,-21.371
0.385,32.634,5.166,5.255,60.610,-63.291,-21.507
0.387,32.784,5.175,5.263,60.532,-63.259,-21.630
0.388,32.929,5.178,5.268,60.449,-63.215,-21.741
0.389,33.072,5.178,5.270,60.364,-63.161,-21.842
0.391,33.212,5.176,5.270,60.277,-63.102,-21.935
0.392,33.350,5.176,5.269,60.188,-63.038,-22.020
0.393,33.485,5.179,5.269,60.099,-62.975,-22.098
0.395,33.616,5.188,5.269,60.011,-62.914,-22.173
0.396,33.741,5.202,5.272,59.923,-62.860,-22.244
0.397,33.860,5.221,5.277,59.838,-62.814,-22.313
0.399,33.973,5.244,5.284,59.756,-62.780,-22.382
0.400,34.080,5.269,5.294,59.677,-62.760,-22.453
0.401,34.184,5.295,5.308,59.603,-62.758,-22.525
0.403,34.287,5.321,5.325,59.532,-62.771,-22.599
0.404,34.392,5.346,5.346,59.465,-62.797,-22.674
0.405,34.498,5.369,5.371,59.400,-62.835,-22.750
0.407,34.608,5.390,5.400,59.337,-62.881,-22.827
0.408,34.719,5.409,5.430,59.275,-62.934,-22.903
0.409,34.831,5.427,5.460,59.214,-62.991,-22.978
0.411,34.943,5.443,5.489,59.153,-63.049,-23.051
0.412,35.054,5.460,5.516,59.091,-63.108,-23.123
0.413,35.163,5.475,5.539,59.028,-63.163,-23.192
0.415,35.269,5.491,5.557,58.963,-63.214,-23.258
0.416,35.370,5.507,5.570,58.896,-63.258,-23.320
0.417,35.468,5.523,5.579,58.826,-63.294,-23.378
0.419,35.563,5.539,5.585,58.754,-63.324,-23.433
0.420,35.654,5.556,5.590,58.683,-63.349,-23.483
0.421,35.741,5.573,5.595,58.613,-63.371,-23.530
0.423,35.824,5.591,5.601,58.546,-63.390,-23.574
0.424,35.902,5.610,5.610,58.481,-63.409,-23.614
0.426,35.975,5.629,5.623,58.422,-63.429,-23.651
0.427,36.042,5.648,5.639,58.368,-63.450,-23.685
0.428,36.103,5.668,5.657,58.321,-63.476,-23.716
0.430,36.159,5.686,5.675,58.283,-63.505,-23.743
0.431,36.212,5.703,5.694,58.254,-63.541,-23.768
0.432,36.264,5.718,5.713,58.234,-63.585,-23.790
0.434,36.321,5.731,5.729,58.223,-63.637,-23.810
0.435,36.385,5.740,5.742,58.217,-63.698,-23.828
0.436,36.459,5.747,5.752,58.215,-63.771,-23.844
0.438,36.544,5.752,5.760,58.215,-63.854,-23.859
0.439,36.642,5.754,5.768,58.214,-63.951,-23.874
0.440,36.753,5.755,5.777,58.210,-64.061,-23.888
0.442,36.878,5.755,5.788,58.202,-64.185,-23.902
0.443,37.021,5.756,5.802,58.186,-64.326,-23.916
0.444,37.181,5.756,5.821,58.161,-64.483,-23.932
0.446,37.360,5.757,5.846,58.124,-64.658,-23.949
0.447,37.561,5.761,5.877,58.075,-64.852,-23.967
0.448,37.781,5.767,5.911,58.012,-65.062,-23.988
0.450,38.016,5.779,5.949,57.939,-65.284,-24.009
0.451,38.261,5.797,5.988,57.857,-65.514,-24.031
0.452,38.511,5.822,6.029,57.770,-65.747,-24.054
0.454,38.761,5.856,6.070,57.680,-65.979,-24.077
0.455,39.006,5.900,6.111,57.588,-66.205,-24.099
0.456,39.241,5.954,6.149,57.498,-66.421,-24.121
0.458,39.462,6.014,6.185,57.412,-66.623,-24.141
0.459,39.662,6.077,6.217,57.332,-66.806,-24.160
0.460,39.838,6.139,6.246,57.260,-66.966,-24.177
0.462,39.984,6.196,6.270,57.200,-67.098,-24.192
0.463,40.098,6.246,6.289,57.151,-67.200,-24.205
0.464,40.181,6.285,6.302,57.114,-67.275,-24.214
0.466,40.239,6.310,6.309,57.088,-67.325,-24.221
0.467,40.274,6.322,6.310,57.069,-67.355,-24.226
0.468,40.291,6.323,6.306,57.058,-67.368,-24.229
0.470,40.297,6.317,6.300,57.053,-67.367,-24.229
0.471,40.308,6.306,6.293,57.052,-67.355,-24.227
0.472,40.327,6.293,6.285,57.055,-67.337,-24.222
0.474,40.349,6.281,6.278,57.059,-67.316,-24.216
0.475,40.373,6.273,6.274,57.063,-67.295,-24.208
0.477,40.393,6.269,6.273,57.066,-67.277,-24.197
0.478,40.410,6.269,6.274,57.066,-67.266,-24.185
0.479,40.424,6.272,6.277,57.064,-67.262,-24.172
0.481,40.439,6.277,6.282,57.059,-67.267,-24.158
0.482,40.459,6.284,6.287,57.051,-67.278,-24.144
0.483,40.484,6.291,6.292,57.040,-67.296,-24.131
0.485,40.514,6.296,6.297,57.027,-67.321,-24.120
0.486,40.550,6.301,6.300,57.011,-67.352,-24.111
0.487,40.592,6.303,6.302,56.992,-67.389,-24.105
0.489,40.640,6.304,6.303,56.971,-67.432,-24.104
0.490,40.693,6.304,6.304,56.948,-67.480,-24.107
0.491,40.753,6.303,6.303,56.922,-67.533,-24.115
0.493,40.819,6.301,6.302,56.894,-67.591,-24.130
0.494,40.891,6.300,6.301,56.864,-67.653,-24.151
0.495,40.971,6.298,6.299,56.832,-67.721,-24.178
0.497,41.056,6.297,6.298,56.798,-67.793,-24.209
0.498,41.149,6.297,6.297,56.763,-67.871,-24.244
0.499,41.247,6.298,6.298,56.727,-67.954,-24.282
0.501,41.351,6.301,6.300,56.691,-68.044,-24.322
0.502,41.461,6.305,6.304,56.655,-68.139,-24.364
0.503,41.577,6.312,6.312,56.618,-68.241,-24.405
0.505,41.698,6.322,6.322,56.583,-68.349,-24.445
0.506,41.825,6.335,6.336,56.547,-68.465,-24.484
0.507,41.957,6.351,6.354,56.513,-68.587,-24.519
0.509,42.095,6.368,6.374,56.481,-68.717,-24.552
0.510,42.236,6.385,6.395,56.450,-68.852,-24.580
0.511,42.380,6.401,6.416,56.421,-68.991,-24.604
0.513,42.523,6.414,6.435,56.394,-69.130,-24.623
0.514,42.664,6.425,6.453,56.370,-69.268,-24.638
0.515,42.799,6.430,6.468,56.348,-69.401,-24.648
0.517,42.927,6.431,6.479,56.329,-69.528,-24.653
0.518,43.046,6.427,6.487,56.312,-69.645,-24.652
0.519,43.153,6.420,6.494,56.300,-69.751,-24.646
0.521,43.246,6.410,6.500,56.290,-69.843,-24.634
0.522,43.323,6.398,6.507,56.285,-69.918,-24.616
0.523,43.385,6.385,6.514,56.283,-69.975,-24.591
0.525,43.434,6.371,6.525,56.284,-70.013,-24.561
0.526,43.475,6.358,6.538,56.284,-70.037,-24.527
0.528,43.515,6.344,6.552,56.279,-70.055,-24.492
0.529,43.555,6.327,6.564,56.266,-70.070,-24.458
0.530,43.600,6.305,6.569,56.240,-70.089,-24.426
0.532,43.658,6.275,6.563,56.197,-70.117,-24.399
0.533,43.736,6.235,6.543,56.135,-70.161,-24.380
0.534,43.845,6.182,6.504,56.048,-70.225,-24.370
0.536,43.991,6.115,6.444,55.933,-70.315,-24.372
0.537,44.182,6.032,6.359,55.787,-70.438,-24.387
0.538,44.427,5.939,6.257,55.605,-70.598,-24.418
0.540,44.730,5.842,6.145,55.384,-70.800,-24.467
0.541,45.085,5.745,6.029,55.130,-71.040,-24.532
0.542,45.480,5.655,5.916,54.851,-71.308,-24.610
0.544,45.904,5.577,5.814,54.554,-71.597,-24.698
0.545,46.345,5.517,5.729,54.246,-71.899,-24.793
0.546,46.791,5.480,5.667,53.937,-72.205,-24.894
0.548,47.231,5.465,5.629,53.634,-72.506,-24.995
0.549,47.653,5.468,5.610,53.344,-72.796,-25.096
0.550,48.045,5.484,5.605,53.076,-73.065,-25.193
0.552,48.395,5.509,5.610,52.837,-73.305,-25.283
0.553,48.692,5.537,5.620,52.635,-73.508,-25.363
0.554,48.924,5.565,5.631,52.479,-73.665,-25.430
0.556,49.090,5.588,5.636,52.369,-73.776,-25.484
0.557,49.197,5.602,5.635,52.299,-73.847,-25.525
0.558,49.258,5.607,5.626,52.262,-73.886,-25.554
0.560,49.283,5.606,5.613,52.250,-73.899,-25.572
0.561,49.295,5.598,5.597,52.258,-73.895,-25.580
0.562,49.318,5.585,5.579,52.276,-73.882,-25.579
