"T","Distance","Radius","FreeRadius","X","Y","Z"
0.000,0.000,2.247,2.247,77.352,-50.316,-0.988
0.001,0.233,2.285,2.285,77.237,-50.228,-1.170
0.003,0.465,2.325,2.325,77.121,-50.140,-1.351
0.004,0.696,2.367,2.367,77.005,-50.055,-1.531
0.005,0.924,2.415,2.415,76.889,-49.972,-1.710
0.007,1.149,2.468,2.468,76.773,-49.893,-1.886
0.008,1.371,2.529,2.529,76.656,-49.818,-2.059
0.009,1.588,2.600,2.600,76.539,-49.749,-2.229
0.010,1.801,2.681,2.681,76.422,-49.687,-2.395
0.012,2.008,2.773,2.773,76.304,-49.632,-2.556
0.013,2.209,2.874,2.874,76.186,-49.585,-2.712
0.014,2.405,2.981,2.981,76.067,-49.548,-2.863
0.016,2.594,3.091,3.091,75.948,-49.521,-3.007
0.017,2.777,3.202,3.202,75.827,-49.505,-3.145
0.018,2.955,3.311,3.311,75.707,-49.499,-3.275
0.020,3.127,3.415,3.415,75.588,-49.503,-3.398
0.021,3.292,3.513,3.513,75.470,-49.516,-3.515
0.022,3.452,3.602,3.602,75.355,-49.535,-3.623
0.024,3.605,3.683,3.683,75.243,-49.561,-3.724
0.025,3.751,3.754,3.754,75.136,-49.591,-3.818
0.026,3.888,3.816,3.816,75.033,-49.625,-3.904
0.028,4.018,3.867,3.867,74.937,-49.662,-3.982
0.029,4.137,3.908,3.908,74.847,-49.700,-4.051
0.030,4.247,3.938,3.938,74.766,-49.738,-4.113
0.031,4.345,3.957,3.957,74.692,-49.775,-4.167
0.033,4.431,3.967,3.967,74.629,-49.810,-4.212
0.034,4.504,3.969,3.969,74.575,-49.843,-4.250
0.035,4.566,3.965,3.965,74.530,-49.873,-4.280
0.037,4.618,3.959,3.959,74.492,-49.900,-4.303
0.038,4.662,3.952,3.952,74.461,-49.926,-4.321
0.039,4.699,3.946,3.946,74.435,-49.949,-4.334
0.041,4.731,3.943,3.943,74.414,-49.972,-4.342
0.042,4.758,3.945,3.945,74.397,-49.992,-4.347
0.043,4.782,3.951,3.951,74.383,-50.011,-4.350
0.045,4.805,3.960,3.960,74.369,-50.030,-4.350
0.046,4.826,3.970,3.970,74.357,-50.047,-4.350
0.047,4.848,3.982,3.982,74.344,-50.064,-4.349
0.048,4.870,3.993,3.993,74.330,-50.081,-4.348
0.050,4.893,4.002,4.002,74.313,-50.098,-4.349
0.051,4.919,4.009,4.009,74.295,-50.115,-4.351
0.052,4.946,4.014,4.014,74.274,-50.132,-4.356
0.054,4.977,4.017,4.017,74.252,-50.152,-4.363
0.055,5.010,4.019,4.019,74.228,-50.173,-4.374
0.056,5.048,4.021,4.021,74.203,-50.196,-4.389
0.058,5.090,4.024,4.024,74.177,-50.223,-4.409
0.059,5.137,4.028,4.028,74.149,-50.252,-4.434
0.060,5.191,4.035,4.035,74.122,-50.286,-4.465
0.062,5.251,4.046,4.046,74.094,-50.324,-4.502
0.063,5.319,4.059,4.059,74.065,-50.367,-4.546
0.064,5.395,4.075,4.075,74.037,-50.415,-4.597
0.066,5.480,4.094,4.094,74.008,-50.470,-4.657
0.067,5.574,4.114,4.114,73.980,-50.529,-4.724
0.068,5.674,4.136,4.136,73.953,-50.593,-4.797
0.069,5.781,4.159,4.159,73.926,-50.660,-4.875
0.071,5.891,4.182,4.182,73.900,-50.730,-4.956
0.072,6.004,4.205,4.205,73.875,-50.802,-5.040
0.073,6.119,4.228,4.228,73.852,-50.874,-5.126
0.075,6.233,4.251,4.251,73.829,-50.946,-5.211
0.076,6.345,4.274,4.274,73.809,-51.017,-5.296
0.077,6.454,4.297,4.297,73.790,-51.086,-5.378
0.079,6.559,4.320,4.320,73.772,-51.152,-5.457
0.080,6.657,4.344,4.344,73.757,-51.215,-5.531
0.081,6.747,4.367,4.367,73.744,-51.272,-5.599
0.083,6.829,4.391,4.391,73.733,-51.325,-5.661
0.084,6.903,4.414,4.414,73.724,-51.373,-5.717
0.085,6.970,4.436,4.436,73.716,-51.416,-5.767
0.087,7.030,4.457,4.457,73.709,-51.455,-5.812
0.088,7.083,4.477,4.477,73.702,-51.490,-5.852
0.089,7.131,4.495,4.495,73.695,-51.521,-5.887
0.090,7.173,4.510,4.510,73.687,-51.549,-5.918
0.092,7.210,4.522,4.522,73.678,-51.574,-5.944
0.093,7.243,4.532,4.532,73.668,-51.596,-5.967
0.094,7.273,4.540,4.540,73.656,-51.615,-5.986
0.096,7.301,4.547,4.547,73.641,-51.632,-6.002
0.097,7.327,4.552,4.552,73.624,-51.647,-6.015
0.098,7.353,4.557,4.557,73.604,-51.660,-6.026
0.100,7.380,4.562,4.562,73.581,-51.671,-6.034
0.101,7.407,4.568,4.568,73.556,-51.681,-6.039
0.102,7.435,4.575,4.575,73.530,-51.690,-6.041
0.104,7.462,4.582,4.582,73.504,-51.697,-6.041
0.105,7.490,4.590,4.590,73.477,-51.704,-6.038
0.106,7.518,4.597,4.597,73.450,-51.711,-6.031
0.107,7.546,4.603,4.603,73.425,-51.716,-6.022
0.109,7.573,4.608,4.608,73.401,-51.722,-6.010
0.110,7.600,4.610,4.610,73.380,-51.728,-5.994
0.111,7.628,4.610,4.610,73.361,-51.734,-5.975
0.113,7.655,4.606,4.606,73.346,-51.741,-5.953
0.114,7.684,4.600,4.600,73.334,-51.748,-5.928
0.115,7.713,4.592,4.592,73.326,-51.756,-5.901
0.117,7.741,4.582,4.582,73.318,-51.763,-5.875
0.118,7.766,4.571,4.571,73.310,-51.771,-5.852
0.119,7.788,4.560,4.560,73.301,-51.778,-5.835
0.121,7.805,4.549,4.549,73.288,-51.784,-5.824
0.122,7.823,4.538,4.538,73.271,-51.789,-5.824
0.123,7.850,4.527,4.527,73.247,-51.792,-5.835
0.125,7.891,4.515,4.515,73.215,-51.793,-5.861
0.126,7.949,4.500,4.500,73.174,-51.793,-5.902
0.127,8.029,4.481,4.481,73.122,-51.789,-5.963
0.128,8.133,4.457,4.457,73.057,-51.783,-6.044
0.130,8.264,4.426,4.426,72.979,-51.774,-6.148
0.131,8.419,4.386,4.386,72.887,-51.761,-6.274
0.132,8.595,4.338,4.338,72.786,-51.746,-6.416
0.134,8.786,4.282,4.282,72.677,-51.728,-6.572
0.135,8.986,4.220,4.220,72.564,-51.707,-6.736
0.136,9.191,4.157,4.157,72.450,-51.685,-6.904
0.138,9.394,4.094,4.094,72.337,-51.660,-7.071
0.139,9.591,4.034,4.034,72.228,-51.634,-7.234
0.140,9.777,3.980,3.980,72.127,-51.607,-7.387
0.142,9.946,3.934,3.934,72.036,-51.578,-7.526
0.143,10.093,3.898,3.898,71.958,-51.548,-7.648
0.144,10.213,3.873,3.873,71.897,-51.518,-7.747
0.145,10.302,3.855,3.855,71.854,-51.488,-7.818
0.147,10.360,3.845,3.845,71.831,-51.458,-7.862
0.148,10.394,3.840,3.840,71.824,-51.431,-7.881
0.149,10.418,3.841,3.841,71.828,-51.408,-7.882
0.151,10.442,3.845,3.845,71.840,-51.391,-7.868
0.152,10.471,3.851,3.851,71.854,-51.383,-7.845
0.153,10.501,3.859,3.859,71.868,-51.385,-7.818
0.155,10.532,3.864,3.864,71.876,-51.400,-7.792
0.156,10.568,3.866,3.866,71.874,-51.430,-7.772
0.157,10.617,3.861,3.861,71.859,-51.476,-7.763
0.159,10.691,3.847,3.847,71.825,-51.540,-7.770
0.160,10.797,3.821,3.821,71.768,-51.626,-7.797
0.161,10.943,3.782,3.782,71.685,-51.734,-7.851
0.163,11.136,3.727,3.727,71.571,-51.866,-7.934
0.164,11.372,3.659,3.659,71.431,-52.020,-8.045
0.165,11.644,3.584,3.584,71.267,-52.192,-8.178
0.166,11.946,3.509,3.509,71.086,-52.379,-8.329
0.168,12.270,3.438,3.438,70.890,-52.578,-8.493
0.169,12.609,3.379,3.379,70.684,-52.785,-8.666
0.170,12.957,3.337,3.337,70.473,-52.997,-8.844
0.172,13.306,3.317,3.317,70.261,-53.210,-9.022
0.173,13.650,3.326,3.326,70.052,-53.422,-9.195
0.174,13.981,3.358,3.358,69.852,-53.628,-9.358
0.176,14.293,3.409,3.409,69.663,-53.826,-9.508
0.177,14.579,3.474,3.474,69.491,-54.013,-9.640
0.178,14.832,3.548,3.548,69.340,-54.184,-9.749
0.180,15.053,3.625,3.625,69.210,-54.340,-9.837
0.181,15.246,3.700,3.700,69.098,-54.481,-9.905
0.182,15.415,3.768,3.768,69.002,-54.609,-9.960
0.183,15.565,3.826,3.826,68.919,-54.726,-10.002
0.185,15.698,3.876,3.877,68.846,-54.832,-10.038
0.186,15.820,3.921,3.921,68.781,-54.930,-10.070
0.187,15.932,3.962,3.963,68.722,-55.020,-10.102
0.189,16.039,4.002,4.003,68.664,-55.103,-10.137
0.190,16.146,4.044,4.044,68.607,-55.182,-10.180
0.191,16.256,4.088,4.088,68.547,-55.257,-10.234
0.193,16.375,4.138,4.138,68.482,-55.329,-10.303
0.194,16.510,4.195,4.194,68.408,-55.400,-10.390
0.195,16.662,4.258,4.257,68.326,-55.472,-10.497
0.197,16.831,4.328,4.326,68.236,-55.544,-10.621
0.198,17.014,4.404,4.402,68.142,-55.616,-10.759
0.199,17.207,4.487,4.485,68.045,-55.690,-10.909
0.201,17.407,4.577,4.575,67.947,-55.764,-11.067
0.202,17.612,4.673,4.673,67.851,-55.841,-11.232
0.203,17.819,4.776,4.777,67.758,-55.919,-11.399
0.204,18.024,4.882,4.886,67.671,-55.999,-11.566
0.206,18.225,4.990,4.995,67.592,-56.083,-11.731
0.207,18.418,5.096,5.103,67.523,-56.169,-11.889
0.208,18.602,5.196,5.206,67.466,-56.258,-12.040
0.210,18.775,5.289,5.300,67.423,-56.351,-12.179
0.211,18.936,5.370,5.383,67.395,-56.448,-12.305
0.212,19.086,5.438,5.451,67.382,-56.547,-12.417
0.214,19.227,5.489,5.502,67.382,-56.648,-12.516
0.215,19.361,5.526,5.537,67.393,-56.748,-12.603
0.216,19.487,5.549,5.559,67.413,-56.847,-12.679
0.218,19.606,5.561,5.569,67.440,-56.944,-12.743
0.219,19.718,5.563,5.568,67.473,-57.036,-12.798
0.220,19.822,5.557,5.560,67.509,-57.123,-12.842
0.221,19.918,5.544,5.545,67.548,-57.203,-12.878
0.223,20.005,5.526,5.525,67.587,-57.275,-12.905
0.224,20.081,5.505,5.503,67.625,-57.338,-12.925
0.225,20.145,5.482,5.479,67.659,-57.390,-12.937
0.227,20.195,5.461,5.458,67.689,-57.431,-12.943
0.228,20.232,5.443,5.440,67.713,-57.460,-12.944
0.229,20.258,5.430,5.427,67.731,-57.477,-12.941
0.231,20.274,5.424,5.422,67.745,-57.485,-12.937
0.232,20.284,5.427,5.427,67.753,-57.483,-12.933
0.233,20.295,5.442,5.443,67.757,-57.473,-12.930
0.235,20.313,5.465,5.470,67.755,-57.455,-12.930
0.236,20.340,5.495,5.503,67.749,-57.430,-12.935
0.237,20.374,5.527,5.541,67.738,-57.399,-12.947
0.239,20.419,5.557,5.581,67.723,-57.362,-12.967
0.240,20.473,5.583,5.619,67.703,-57.322,-12.996
0.241,20.538,5.601,5.653,67.678,-57.277,-13.038
0.242,20.615,5.608,5.679,67.650,-57.230,-13.092
0.244,20.705,5.600,5.696,67.617,-57.181,-13.160
0.245,20.807,5.579,5.702,67.580,-57.132,-13.240
0.246,20.919,5.548,5.698,67.538,-57.083,-13.332
0.248,21.040,5.507,5.682,67.491,-57.036,-13.433
0.249,21.169,5.461,5.656,67.438,-56.992,-13.543
0.250,21.306,5.409,5.619,67.380,-56.952,-13.660
0.252,21.449,5.355,5.570,67.316,-56.918,-13.783
0.253,21.598,5.301,5.510,67.245,-56.891,-13.911
0.254,21.751,5.248,5.438,67.169,-56.872,-14.043
0.256,21.909,5.195,5.359,67.085,-56.863,-14.176
0.257,22.071,5.142,5.274,66.994,-56.864,-14.311
0.258,22.238,5.089,5.186,66.896,-56.876,-14.445
0.260,22.410,5.036,5.099,66.791,-56.902,-14.578
0.261,22.587,4.982,5.014,66.678,-56.939,-14.710
0.262,22.769,4.928,4.935,66.560,-56.987,-14.840
0.263,22.957,4.871,4.863,66.436,-57.046,-14.968
0.265,23.150,4.814,4.800,66.308,-57.115,-15.095
0.266,23.347,4.755,4.743,66.176,-57.192,-15.220
0.267,23.549,4.696,4.691,66.041,-57.276,-15.344
0.269,23.755,4.636,4.642,65.903,-57.368,-15.466
0.270,23.963,4.577,4.594,65.763,-57.466,-15.586
0.271,24.174,4.517,4.546,65.623,-57.569,-15.704
0.273,24.386,4.458,4.495,65.482,-57.677,-15.820
0.274,24.598,4.400,4.441,65.342,-57.788,-15.934
0.275,24.810,4.344,4.385,65.203,-57.903,-16.047
0.277,25.021,4.292,4.330,65.066,-58.019,-16.157
0.278,25.231,4.246,4.278,64.930,-58.138,-16.264
0.279,25.439,4.207,4.231,64.796,-58.258,-16.368
0.280,25.644,4.176,4.192,64.664,-58.379,-16.467
0.282,25.846,4.156,4.163,64.533,-58.502,-16.562
0.283,26.045,4.149,4.147,64.405,-58.625,-16.651
0.284,26.241,4.154,4.145,64.279,-58.749,-16.735
0.286,26.432,4.169,4.156,64.156,-58.872,-16.812
0.287,26.618,4.193,4.177,64.034,-58.995,-16.883
0.288,26.800,4.224,4.206,63.916,-59.118,-16.945
0.290,26.977,4.258,4.242,63.800,-59.239,-17.000
0.291,27.148,4.294,4.282,63.686,-59.359,-17.046
0.292,27.314,4.329,4.324,63.576,-59.478,-17.084
0.294,27.476,4.362,4.367,63.470,-59.596,-17.114
0.295,27.633,4.391,4.409,63.368,-59.712,-17.140
0.296,27.785,4.418,4.450,63.271,-59.827,-17.161
0.298,27.933,4.443,4.489,63.179,-59.942,-17.180
0.299,28.077,4.468,4.527,63.092,-60.055,-17.198
0.300,28.216,4.493,4.564,63.013,-60.168,-17.215
0.301,28.352,4.520,4.598,62.940,-60.281,-17.235
0.303,28.484,4.549,4.631,62.875,-60.394,-17.258
0.304,28.613,4.581,4.661,62.817,-60.506,-17.285
0.305,28.740,4.616,4.689,62.769,-60.618,-17.318
0.307,28.866,4.651,4.713,62.729,-60.731,-17.358
0.308,28.992,4.685,4.735,62.699,-60.843,-17.407
0.309,29.120,4.716,4.752,62.675,-60.956,-17.463
0.311,29.250,4.744,4.766,62.658,-61.068,-17.527
0.312,29.382,4.765,4.775,62.644,-61.179,-17.597
0.313,29.515,4.779,4.778,62.632,-61.288,-17.673
0.315,29.650,4.785,4.777,62.619,-61.396,-17.753
0.316,29.787,4.783,4.773,62.605,-61.501,-17.839
0.317,29.924,4.777,4.766,62.587,-61.604,-17.928
0.318,30.061,4.768,4.759,62.564,-61.703,-18.020
0.320,30.200,4.757,4.753,62.532,-61.799,-18.114
0.321,30.339,4.747,4.750,62.492,-61.891,-18.210
0.322,30.480,4.739,4.752,62.440,-61.979,-18.308
0.324,30.624,4.736,4.759,62.375,-62.063,-18.405
0.325,30.772,4.737,4.773,62.299,-62.141,-18.504
0.326,30.925,4.744,4.792,62.211,-62.217,-18.606
0.328,31.084,4.755,4.816,62.115,-62.289,-18.710
0.329,31.249,4.770,4.841,62.012,-62.358,-18.819
0.330,31.421,4.789,4.868,61.903,-62.425,-18.932
0.332,31.598,4.810,4.896,61.789,-62.491,-19.052
0.333,31.782,4.833,4.921,61.673,-62.556,-19.179
0.334,31.972,4.858,4.945,61.556,-62.620,-19.314
0.336,32.168,4.885,4.966,61.439,-62.684,-19.458
0.337,32.372,4.914,4.987,61.324,-62.749,-19.612
0.338,32.582,4.945,5.007,61.212,-62.815,-19.777
0.339,32.799,4.977,5.029,61.106,-62.883,-19.955
0.341,33.024,5.012,5.054,61.005,-62.952,-20.143
0.342,33.252,5.050,5.083,60.910,-63.022,-20.338
0.343,33.482,5.090,5.117,60.821,-63.091,-20.539
0.345,33.710,5.132,5.157,60.737,-63.157,-20.741
0.346,33.935,5.175,5.201,60.659,-63.221,-20.941
0.347,34.152,5.218,5.248,60.588,-63.282,-21.137
0.349,34.359,5.259,5.295,60.522,-63.337,-21.326
0.350,34.553,5.297,5.340,60.462,-63.386,-21.504
0.351,34.731,5.329,5.381,60.408,-63.428,-21.668
0.353,34.889,5.354,5.416,60.361,-63.462,-21.815
0.354,35.026,5.372,5.443,60.319,-63.486,-21.943
0.355,35.137,5.380,5.461,60.283,-63.501,-22.047
0.356,35.224,5.382,5.471,60.253,-63.505,-22.128
0.358,35.289,5.378,5.476,60.228,-63.500,-22.188
0.359,35.338,5.372,5.475,60.206,-63.488,-22.230
0.360,35.376,5.365,5.472,60.186,-63.471,-22.258
0.362,35.408,5.359,5.467,60.167,-63.451,-22.275
0.363,35.439,5.357,5.462,60.149,-63.429,-22.284
0.364,35.468,5.360,5.459,60.129,-63.407,-22.289
0.366,35.498,5.369,5.458,60.106,-63.388,-22.293
0.367,35.529,5.382,5.459,60.080,-63.372,-22.298
0.368,35.564,5.398,5.463,60.049,-63.362,-22.310
0.370,35.606,5.417,5.469,60.012,-63.360,-22.330
0.371,35.661,5.437,5.478,59.968,-63.366,-22.362
0.372,35.733,5.457,5.490,59.916,-63.384,-22.408
0.374,35.823,5.476,5.504,59.856,-63.411,-22.469
0.375,35.927,5.493,5.521,59.789,-63.446,-22.541
0.376,36.043,5.508,5.541,59.718,-63.489,-22.622
0.377,36.170,5.522,5.562,59.641,-63.537,-22.711
0.379,36.304,5.537,5.585,59.561,-63.589,-22.805
0.380,36.443,5.552,5.609,59.479,-63.644,-22.903
0.381,36.585,5.569,5.633,59.395,-63.700,-23.002
0.383,36.726,5.588,5.658,59.310,-63.756,-23.100
0.384,36.864,5.611,5.681,59.226,-63.810,-23.195
0.385,36.997,5.638,5.704,59.143,-63.861,-23.286
0.387,37.122,5.667,5.726,59.063,-63.908,-23.369
0.388,37.237,5.698,5.746,58.985,-63.949,-23.444
0.389,37.341,5.728,5.765,58.912,-63.985,-23.509
0.391,37.435,5.757,5.782,58.843,-64.014,-23.565
0.392,37.520,5.783,5.797,58.779,-64.040,-23.614
0.393,37.596,5.805,5.809,58.719,-64.061,-23.656
0.394,37.663,5.821,5.819,58.664,-64.079,-23.691
0.396,37.723,5.831,5.826,58.615,-64.095,-23.721
0.397,37.775,5.837,5.832,58.571,-64.108,-23.746
0.398,37.820,5.840,5.836,58.533,-64.121,-23.766
0.400,37.857,5.841,5.839,58.502,-64.133,-23.783
0.401,37.888,5.841,5.842,58.477,-64.144,-23.797
0.402,37.914,5.843,5.845,58.458,-64.157,-23.809
0.404,37.934,5.848,5.848,58.447,-64.171,-23.819
0.405,37.954,5.856,5.853,58.442,-64.187,-23.829
0.406,37.977,5.867,5.859,58.443,-64.208,-23.838
0.408,38.005,5.880,5.865,58.446,-64.235,-23.847
0.409,38.042,5.893,5.873,58.451,-64.270,-23.855
0.410,38.088,5.905,5.882,58.456,-64.315,-23.864
0.412,38.145,5.913,5.892,58.459,-64.372,-23.874
0.413,38.216,5.916,5.902,58.458,-64.442,-23.884
0.414,38.303,5.913,5.913,58.453,-64.527,-23.895
0.415,38.407,5.903,5.925,58.440,-64.631,-23.907
0.417,38.532,5.888,5.938,58.418,-64.753,-23.921
0.418,38.680,5.872,5.954,58.386,-64.896,-23.937
0.419,38.853,5.858,5.973,58.342,-65.062,-23.954
0.421,39.052,5.850,5.996,58.284,-65.252,-23.974
0.422,39.273,5.851,6.025,58.215,-65.461,-23.995
0.423,39.512,5.864,6.060,58.137,-65.686,-24.018
0.425,39.764,5.894,6.102,58.052,-65.921,-24.042
0.426,40.022,5.939,6.150,57.962,-66.162,-24.066
0.427,40.282,5.997,6.204,57.869,-66.404,-24.090
0.429,40.540,6.063,6.259,57.775,-66.642,-24.114
0.430,40.788,6.131,6.313,57.684,-66.873,-24.136
0.431,41.023,6.198,6.365,57.596,-67.090,-24.158
0.433,41.240,6.259,6.411,57.515,-67.289,-24.177
0.434,41.432,6.309,6.448,57.441,-67.466,-24.195
0.435,41.596,6.343,6.475,57.379,-67.616,-24.209
0.436,41.725,6.363,6.491,57.329,-67.735,-24.221
0.438,41.821,6.370,6.498,57.291,-67.824,-24.229
0.439,41.888,6.367,6.499,57.265,-67.884,-24.235
0.440,41.928,6.359,6.494,57.248,-67.921,-24.238
0.442,41.946,6.347,6.486,57.240,-67.937,-24.240
0.443,41.948,6.336,6.476,57.239,-67.934,-24.239
0.444,41.966,6.327,6.467,57.244,-67.918,-24.237
0.446,41.996,6.324,6.459,57.254,-67.890,-24.234
0.447,42.034,6.327,6.454,57.267,-67.854,-24.230
0.448,42.078,6.334,6.451,57.283,-67.813,-24.226
0.450,42.124,6.344,6.449,57.299,-67.770,-24.221
0.451,42.168,6.356,6.448,57.314,-67.729,-24.216
0.452,42.207,6.369,6.447,57.328,-67.693,-24.212
0.453,42.239,6.382,6.447,57.340,-67.663,-24.209
0.455,42.263,6.394,6.447,57.348,-67.641,-24.207
0.456,42.278,6.404,6.447,57.353,-67.627,-24.206
0.457,42.285,6.411,6.446,57.355,-67.620,-24.207
0.459,42.290,6.416,6.444,57.353,-67.623,-24.211
0.460,42.304,6.419,6.442,57.347,-67.634,-24.217
0.461,42.329,6.419,6.437,57.337,-67.654,-24.227
0.463,42.365,6.417,6.431,57.322,-67.685,-24.239
0.464,42.413,6.411,6.424,57.302,-67.726,-24.256
0.465,42.474,6.404,6.414,57.277,-67.777,-24.277
0.467,42.547,6.394,6.402,57.247,-67.839,-24.303
0.468,42.635,6.383,6.390,57.212,-67.913,-24.333
0.469,42.736,6.372,6.378,57.170,-67.998,-24.369
0.471,42.850,6.363,6.368,57.124,-68.094,-24.409
0.472,42.973,6.357,6.360,57.075,-68.199,-24.453
0.473,43.105,6.355,6.356,57.023,-68.310,-24.499
0.474,43.243,6.357,6.358,56.969,-68.428,-24.547
0.476,43.386,6.366,6.365,56.916,-68.551,-24.596
0.477,43.531,6.381,6.378,56.862,-68.677,-24.645
0.478,43.677,6.399,6.395,56.811,-68.804,-24.694
0.480,43.821,6.421,6.417,56.763,-68.932,-24.740
0.481,43.963,6.443,6.441,56.719,-69.059,-24.785
0.482,44.099,6.465,6.467,56.679,-69.183,-24.825
0.484,44.229,6.486,6.494,56.646,-69.304,-24.862
0.485,44.352,6.503,6.522,56.620,-69.419,-24.893
0.486,44.466,6.517,6.548,56.600,-69.529,-24.919
0.488,44.575,6.526,6.573,56.586,-69.634,-24.940
0.489,44.677,6.531,6.595,56.575,-69.734,-24.956
0.490,44.774,6.532,6.615,56.566,-69.830,-24.968
0.491,44.866,6.531,6.631,56.558,-69.922,-24.975
0.493,44.954,6.526,6.642,56.550,-70.010,-24.977
0.494,45.039,6.518,6.648,56.541,-70.095,-24.974
0.495,45.122,6.507,6.649,56.528,-70.176,-24.968
0.497,45.203,6.495,6.643,56.511,-70.255,-24.957
0.498,45.284,6.480,6.632,56.488,-70.331,-24.942
0.499,45.366,6.463,6.617,56.459,-70.405,-24.924
0.501,45.450,6.445,6.598,56.421,-70.477,-24.901
0.502,45.539,6.425,6.577,56.375,-70.548,-24.875
0.503,45.633,6.404,6.555,56.320,-70.618,-24.847
0.505,45.731,6.381,6.531,56.257,-70.688,-24.818
0.506,45.836,6.358,6.508,56.186,-70.760,-24.788
0.507,45.946,6.334,6.485,56.109,-70.832,-24.757
0.509,46.063,6.309,6.461,56.024,-70.907,-24.729
0.510,46.185,6.280,6.437,55.934,-70.985,-24.702
0.511,46.314,6.249,6.410,55.837,-71.066,-24.678
0.512,46.449,6.215,6.381,55.735,-71.152,-24.657
0.514,46.591,6.176,6.349,55.627,-71.243,-24.641
0.515,46.739,6.133,6.314,55.515,-71.340,-24.631
0.516,46.895,6.084,6.274,55.398,-71.443,-24.627
0.518,47.058,6.032,6.231,55.278,-71.553,-24.630
0.519,47.229,5.977,6.186,55.154,-71.669,-24.639
0.520,47.406,5.922,6.139,55.026,-71.791,-24.655
0.522,47.589,5.868,6.092,54.896,-71.918,-24.676
0.523,47.778,5.816,6.045,54.763,-72.050,-24.703
0.524,47.971,5.768,6.000,54.629,-72.185,-24.735
0.526,48.169,5.727,5.957,54.492,-72.324,-24.771
0.527,48.371,5.692,5.918,54.354,-72.465,-24.811
0.528,48.575,5.664,5.882,54.215,-72.608,-24.855
0.529,48.781,5.642,5.851,54.076,-72.752,-24.903
0.531,48.989,5.625,5.826,53.936,-72.897,-24.953
0.532,49.197,5.615,5.806,53.796,-73.042,-25.006
0.533,49.405,5.610,5.793,53.657,-73.186,-25.061
0.535,49.611,5.609,5.786,53.519,-73.329,-25.117
0.536,49.813,5.613,5.788,53.384,-73.468,-25.174
0.537,50.010,5.620,5.796,53.252,-73.604,-25.231
0.539,50.200,5.631,5.809,53.126,-73.733,-25.288
0.540,50.381,5.642,5.823,53.005,-73.857,-25.343
0.541,50.552,5.654,5.837,52.891,-73.972,-25.396
0.543,50.710,5.665,5.847,52.786,-74.079,-25.447
0.544,50.854,5.674,5.852,52.689,-74.175,-25.494
0.545,50.982,5.680,5.849,52.603,-74.260,-25.537
0.547,51.093,5.682,5.836,52.529,-74.332,-25.575
0.548,51.184,5.681,5.814,52.467,-74.390,-25.608
0.549,51.254,5.677,5.786,52.418,-74.433,-25.635
