"T","Distance","Radius","FreeRadius","X","Y","Z"
0.000,0.000,2.317,2.317,251.009,224.473,214.126
0.001,0.472,2.387,2.387,251.109,224.497,214.586
0.003,0.940,2.458,2.458,251.209,224.521,215.043
0.004,1.402,2.531,2.531,251.308,224.544,215.494
0.005,1.854,2.608,2.608,251.405,224.566,215.934
0.007,2.292,2.688,2.688,251.499,224.587,216.362
0.008,2.713,2.774,2.774,251.589,224.605,216.773
0.009,3.115,2.867,2.867,251.676,224.622,217.164
0.010,3.492,2.966,2.966,251.758,224.636,217.532
0.012,3.842,3.073,3.073,251.834,224.647,217.874
0.013,4.163,3.183,3.183,251.905,224.654,218.186
0.014,4.449,3.292,3.292,251.968,224.658,218.466
0.016,4.699,3.398,3.398,252.025,224.657,218.709
0.017,4.908,3.496,3.496,252.073,224.653,218.912
0.018,5.075,3.583,3.583,252.113,224.643,219.074
0.020,5.202,3.655,3.655,252.145,224.630,219.196
0.021,5.294,3.708,3.708,252.171,224.613,219.283
0.022,5.357,3.744,3.744,252.193,224.594,219.339
0.024,5.397,3.765,3.765,252.211,224.575,219.369
0.025,5.425,3.775,3.775,252.228,224.554,219.377
0.026,5.452,3.776,3.776,252.244,224.535,219.368
0.028,5.486,3.772,3.772,252.262,224.518,219.345
0.029,5.526,3.765,3.765,252.283,224.503,219.314
0.030,5.571,3.760,3.760,252.307,224.491,219.278
0.031,5.618,3.759,3.759,252.338,224.485,219.243
0.033,5.667,3.763,3.763,252.375,224.484,219.211
0.034,5.719,3.772,3.772,252.422,224.489,219.189
0.035,5.777,3.786,3.786,252.478,224.502,219.179
0.037,5.846,3.805,3.805,252.543,224.522,219.183
0.038,5.924,3.830,3.830,252.615,224.549,219.199
0.039,6.011,3.862,3.862,252.692,224.581,219.226
0.041,6.105,3.899,3.899,252.771,224.617,219.262
0.042,6.205,3.942,3.942,252.851,224.658,219.305
0.043,6.307,3.987,3.987,252.929,224.701,219.356
0.045,6.411,4.031,4.031,253.003,224.747,219.411
0.046,6.513,4.070,4.070,253.071,224.793,219.471
0.047,6.611,4.102,4.102,253.131,224.841,219.532
0.049,6.704,4.122,4.122,253.181,224.888,219.595
0.050,6.790,4.127,4.127,253.219,224.933,219.658
0.051,6.869,4.114,4.114,253.242,224.977,219.719
0.052,6.940,4.085,4.085,253.249,225.018,219.777
0.054,7.006,4.044,4.044,253.241,225.055,219.830
0.055,7.068,3.997,3.997,253.222,225.089,219.879
0.056,7.125,3.951,3.951,253.198,225.118,219.922
0.058,7.175,3.910,3.910,253.173,225.142,219.958
0.059,7.216,3.880,3.880,253.151,225.161,219.987
0.060,7.244,3.867,3.867,253.137,225.175,220.008
0.062,7.258,3.875,3.875,253.135,225.182,220.019
0.063,7.273,3.901,3.901,253.151,225.183,220.020
0.064,7.312,3.939,3.939,253.187,225.177,220.010
0.066,7.380,3.982,3.982,253.250,225.164,219.988
0.067,7.482,4.022,4.022,253.344,225.143,219.954
0.068,7.622,4.055,4.055,253.473,225.114,219.906
0.070,7.806,4.071,4.071,253.641,225.076,219.844
0.071,8.031,4.066,4.066,253.849,225.030,219.770
0.072,8.292,4.036,4.036,254.091,224.976,219.687
0.073,8.582,3.985,3.985,254.361,224.915,219.600
0.075,8.895,3.919,3.919,254.653,224.847,219.514
0.076,9.223,3.845,3.845,254.963,224.775,219.433
0.077,9.561,3.769,3.769,255.284,224.698,219.363
0.079,9.902,3.697,3.697,255.611,224.616,219.306
0.080,10.241,3.635,3.635,255.937,224.532,219.268
0.081,10.574,3.590,3.590,256.258,224.446,219.254
0.083,10.895,3.565,3.565,256.567,224.358,219.268
0.084,11.204,3.558,3.558,256.859,224.269,219.314
0.085,11.500,3.568,3.568,257.129,224.181,219.396
0.087,11.785,3.595,3.595,257.370,224.093,219.521
0.088,12.066,3.638,3.638,257.580,224.007,219.687
0.089,12.349,3.694,3.694,257.760,223.923,219.888
0.091,12.638,3.764,3.764,257.913,223.841,220.119
0.092,12.932,3.846,3.846,258.041,223.763,220.373
0.093,13.231,3.937,3.937,258.145,223.689,220.642
0.094,13.530,4.032,4.032,258.229,223.618,220.920
0.096,13.825,4.127,4.127,258.294,223.553,221.201
0.097,14.112,4.219,4.219,258.343,223.493,221.478
0.098,14.386,4.301,4.301,258.377,223.439,221.743
0.100,14.639,4.371,4.371,258.399,223.392,221.992
0.101,14.867,4.424,4.424,258.411,223.351,222.215
0.102,15.063,4.457,4.457,258.415,223.319,222.408
0.104,15.220,4.473,4.473,258.414,223.294,222.564
0.105,15.336,4.476,4.476,258.408,223.277,222.678
0.106,15.415,4.470,4.470,258.401,223.267,222.756
0.108,15.463,4.460,4.460,258.393,223.262,222.804
0.109,15.487,4.448,4.448,258.385,223.260,222.826
0.110,15.493,4.440,4.440,258.379,223.258,222.829
0.112,15.505,4.438,4.438,258.377,223.256,222.818
0.113,15.525,4.446,4.446,258.380,223.250,222.798
0.114,15.550,4.463,4.463,258.389,223.241,222.777
0.115,15.580,4.488,4.488,258.405,223.225,222.758
0.117,15.617,4.520,4.520,258.431,223.201,222.749
0.118,15.667,4.558,4.558,258.467,223.166,222.754
0.119,15.738,4.601,4.601,258.516,223.120,222.779
0.121,15.838,4.648,4.648,258.577,223.060,222.830
0.122,15.972,4.699,4.699,258.653,222.986,222.911
0.123,16.136,4.754,4.754,258.741,222.898,223.018
0.125,16.326,4.811,4.811,258.840,222.800,223.149
0.126,16.538,4.873,4.873,258.945,222.693,223.297
0.127,16.764,4.937,4.937,259.057,222.581,223.460
0.129,17.001,5.006,5.006,259.171,222.465,223.632
0.130,17.243,5.078,5.078,259.285,222.348,223.809
0.131,17.484,5.154,5.154,259.398,222.232,223.988
0.133,17.719,5.234,5.234,259.507,222.120,224.164
0.134,17.943,5.316,5.316,259.609,222.013,224.332
0.135,18.150,5.397,5.397,259.702,221.915,224.488
0.136,18.334,5.475,5.475,259.784,221.828,224.628
0.138,18.491,5.548,5.548,259.853,221.753,224.748
0.139,18.616,5.614,5.614,259.906,221.694,224.844
0.140,18.710,5.669,5.669,259.945,221.649,224.917
0.142,18.777,5.712,5.712,259.972,221.617,224.970
0.143,18.820,5.742,5.742,259.989,221.598,225.004
0.144,18.842,5.760,5.760,259.997,221.589,225.023
0.146,18.849,5.767,5.767,260.000,221.590,225.029
0.147,18.859,5.766,5.766,259.999,221.599,225.023
0.148,18.880,5.758,5.758,259.996,221.614,225.010
0.150,18.910,5.746,5.746,259.993,221.636,224.990
0.151,18.945,5.730,5.730,259.993,221.662,224.966
0.152,18.983,5.712,5.712,259.998,221.691,224.942
0.154,19.024,5.695,5.695,260.009,221.723,224.919
0.155,19.066,5.678,5.678,260.029,221.755,224.899
0.156,19.112,5.664,5.664,260.059,221.786,224.885
0.157,19.162,5.653,5.653,260.099,221.816,224.878
0.159,19.218,5.647,5.647,260.148,221.843,224.878
0.160,19.280,5.647,5.647,260.204,221.867,224.885
0.161,19.346,5.654,5.654,260.265,221.887,224.899
0.163,19.416,5.669,5.669,260.330,221.903,224.920
0.164,19.489,5.691,5.691,260.397,221.912,224.949
0.165,19.566,5.718,5.718,260.465,221.915,224.985
0.167,19.646,5.749,5.749,260.532,221.910,225.029
0.168,19.730,5.783,5.783,260.596,221.897,225.081
0.169,19.818,5.817,5.817,260.656,221.874,225.140
0.171,19.911,5.849,5.850,260.711,221.842,225.208
0.172,20.011,5.880,5.880,260.758,221.798,225.285
0.173,20.119,5.906,5.906,260.797,221.743,225.369
0.175,20.236,5.930,5.930,260.827,221.678,225.461
0.176,20.361,5.953,5.953,260.850,221.603,225.560
0.177,20.493,5.975,5.975,260.867,221.523,225.663
0.178,20.630,5.999,5.999,260.878,221.437,225.770
0.180,20.770,6.024,6.024,260.886,221.350,225.879
0.181,20.910,6.054,6.054,260.892,221.263,225.988
0.182,21.049,6.088,6.088,260.896,221.178,226.098
0.184,21.183,6.126,6.126,260.901,221.098,226.205
0.185,21.311,6.167,6.168,260.906,221.024,226.309
0.186,21.430,6.210,6.210,260.914,220.958,226.409
0.188,21.539,6.252,6.253,260.926,220.904,226.502
0.189,21.636,6.293,6.293,260.943,220.862,226.588
0.190,21.721,6.329,6.329,260.966,220.836,226.666
0.192,21.797,6.360,6.360,260.996,220.825,226.735
0.193,21.868,6.384,6.384,261.032,220.828,226.796
0.194,21.939,6.401,6.400,261.075,220.844,226.850
0.196,22.013,6.410,6.409,261.123,220.870,226.899
0.197,22.092,6.413,6.412,261.178,220.907,226.943
0.198,22.177,6.409,6.408,261.238,220.951,226.984
0.199,22.269,6.399,6.397,261.304,221.002,227.022
0.201,22.366,6.382,6.382,261.375,221.057,227.060
0.202,22.470,6.360,6.360,261.451,221.117,227.097
0.203,22.578,6.333,6.334,261.532,221.178,227.135
0.205,22.691,6.302,6.304,261.618,221.240,227.175
0.206,22.808,6.269,6.273,261.707,221.301,227.219
0.207,22.929,6.236,6.241,261.802,221.359,227.267
0.209,23.053,6.206,6.211,261.900,221.414,227.319
0.210,23.179,6.179,6.183,262.001,221.465,227.375
0.211,23.307,6.158,6.160,262.105,221.512,227.433
0.213,23.437,6.144,6.143,262.211,221.556,227.493
0.214,23.567,6.139,6.132,262.319,221.595,227.554
0.215,23.696,6.139,6.127,262.429,221.630,227.613
0.217,23.824,6.142,6.126,262.539,221.660,227.671
0.218,23.950,6.146,6.127,262.649,221.687,227.727
0.219,24.073,6.148,6.130,262.758,221.708,227.778
0.220,24.193,6.147,6.133,262.867,221.725,227.825
0.222,24.308,6.139,6.135,262.974,221.737,227.866
0.223,24.419,6.123,6.134,263.080,221.744,227.900
0.224,24.525,6.100,6.130,263.182,221.745,227.926
0.226,24.627,6.069,6.123,263.282,221.742,227.943
0.227,24.725,6.034,6.112,263.380,221.734,227.953
0.228,24.821,5.995,6.097,263.475,221.721,227.958
0.230,24.916,5.955,6.078,263.569,221.706,227.958
0.231,25.010,5.914,6.054,263.661,221.687,227.955
0.232,25.104,5.875,6.026,263.752,221.665,227.949
0.234,25.197,5.839,5.993,263.842,221.642,227.943
0.235,25.291,5.805,5.956,263.933,221.617,227.938
0.236,25.385,5.774,5.917,264.023,221.592,227.935
0.238,25.479,5.744,5.876,264.114,221.566,227.935
0.239,25.575,5.715,5.834,264.205,221.540,227.940
0.240,25.671,5.687,5.794,264.298,221.515,227.951
0.241,25.770,5.659,5.755,264.392,221.492,227.969
0.243,25.873,5.629,5.719,264.489,221.469,227.995
0.244,25.979,5.599,5.687,264.588,221.448,228.029
0.245,26.091,5.568,5.658,264.689,221.427,228.070
0.247,26.208,5.535,5.632,264.795,221.406,228.117
0.248,26.331,5.502,5.607,264.904,221.383,228.169
0.249,26.461,5.466,5.582,265.018,221.359,228.225
0.251,26.597,5.430,5.558,265.138,221.332,228.285
0.252,26.740,5.392,5.534,265.263,221.302,228.348
0.253,26.891,5.352,5.508,265.394,221.268,228.412
0.255,27.048,5.312,5.482,265.532,221.229,228.478
0.256,27.214,5.271,5.454,265.678,221.185,228.543
0.257,27.388,5.231,5.426,265.831,221.135,228.609
0.259,27.571,5.193,5.398,265.993,221.078,228.672
0.260,27.763,5.158,5.371,266.163,221.013,228.734
0.261,27.963,5.126,5.345,266.341,220.942,228.793
0.262,28.168,5.099,5.321,266.522,220.867,228.849
0.264,28.375,5.078,5.298,266.706,220.788,228.903
0.265,28.582,5.061,5.278,266.890,220.706,228.953
0.266,28.786,5.049,5.259,267.071,220.624,229.000
0.268,28.986,5.039,5.243,267.248,220.543,229.043
0.269,29.177,5.031,5.228,267.417,220.463,229.083
0.270,29.358,5.023,5.215,267.577,220.387,229.119
0.272,29.525,5.016,5.204,267.725,220.315,229.151
0.273,29.677,5.007,5.194,267.859,220.250,229.179
0.274,29.810,4.996,5.186,267.977,220.192,229.202
0.276,29.923,4.984,5.179,268.076,220.143,229.220
0.277,30.011,4.972,5.174,268.155,220.104,229.233
0.278,30.077,4.961,5.170,268.213,220.075,229.243
0.280,30.124,4.952,5.167,268.254,220.054,229.248
0.281,30.152,4.946,5.166,268.280,220.041,229.250
0.282,30.166,4.944,5.165,268.292,220.034,229.249
0.283,30.169,4.946,5.166,268.293,220.033,229.247
0.285,30.178,4.954,5.168,268.284,220.037,229.243
0.286,30.196,4.964,5.170,268.269,220.044,229.239
0.287,30.219,4.977,5.174,268.249,220.053,229.234
0.289,30.244,4.992,5.178,268.226,220.064,229.230
0.290,30.270,5.006,5.182,268.202,220.075,229.228
0.291,30.294,5.019,5.186,268.181,220.085,229.227
0.293,30.314,5.029,5.190,268.162,220.093,229.229
0.294,30.329,5.036,5.194,268.150,220.099,229.234
0.295,30.339,5.039,5.198,268.144,220.101,229.241
0.297,30.348,5.039,5.201,268.143,220.100,229.250
0.298,30.360,5.037,5.202,268.148,220.096,229.260
0.299,30.375,5.032,5.201,268.159,220.089,229.269
0.301,30.395,5.026,5.197,268.173,220.078,229.277
0.302,30.420,5.019,5.191,268.192,220.063,229.282
0.303,30.449,5.011,5.181,268.215,220.045,229.284
0.304,30.483,5.004,5.167,268.241,220.023,229.282
0.306,30.522,4.995,5.149,268.270,219.998,229.273
0.307,30.568,4.985,5.128,268.301,219.969,229.258
0.308,30.620,4.973,5.101,268.335,219.936,229.236
0.310,30.680,4.958,5.071,268.370,219.899,229.205
0.311,30.748,4.940,5.036,268.406,219.858,229.164
0.312,30.825,4.918,4.996,268.444,219.813,229.114
0.314,30.909,4.892,4.952,268.486,219.765,229.059
0.315,31.001,4.861,4.903,268.532,219.712,229.000
0.316,31.098,4.826,4.852,268.584,219.655,228.941
0.318,31.200,4.786,4.798,268.643,219.594,228.885
0.319,31.307,4.743,4.744,268.712,219.530,228.834
0.320,31.420,4.696,4.690,268.791,219.461,228.791
0.322,31.541,4.646,4.639,268.882,219.388,228.759
0.323,31.671,4.593,4.590,268.986,219.311,228.741
0.324,31.815,4.537,4.546,269.105,219.230,228.740
0.325,31.976,4.481,4.506,269.240,219.146,228.758
0.327,32.158,4.425,4.471,269.393,219.057,228.798
0.328,32.364,4.372,4.441,269.565,218.963,228.864
0.329,32.596,4.324,4.416,269.757,218.867,228.954
0.331,32.853,4.283,4.396,269.965,218.766,229.064
0.332,33.129,4.250,4.381,270.188,218.664,229.191
0.333,33.422,4.227,4.370,270.425,218.559,229.329
0.335,33.728,4.216,4.365,270.672,218.453,229.475
0.336,34.043,4.215,4.364,270.928,218.346,229.622
0.337,34.362,4.223,4.369,271.191,218.238,229.768
0.339,34.681,4.236,4.379,271.458,218.131,229.906
0.340,34.998,4.252,4.394,271.729,218.025,230.034
0.341,35.309,4.269,4.414,271.999,217.921,230.146
0.343,35.611,4.286,4.440,272.268,217.819,230.237
0.344,35.902,4.299,4.471,272.533,217.720,230.304
0.345,36.181,4.308,4.508,272.793,217.624,230.341
0.346,36.449,4.315,4.549,273.045,217.531,230.347
0.348,36.709,4.324,4.594,273.288,217.443,230.325
0.349,36.963,4.336,4.643,273.523,217.360,230.279
0.350,37.210,4.354,4.694,273.748,217.280,230.212
0.352,37.452,4.381,4.747,273.962,217.206,230.129
0.353,37.687,4.419,4.801,274.165,217.136,230.033
0.354,37.914,4.470,4.856,274.356,217.070,229.928
0.356,38.131,4.534,4.911,274.533,217.011,229.819
0.357,38.337,4.605,4.963,274.698,216.956,229.708
0.358,38.528,4.681,5.013,274.848,216.907,229.600
0.360,38.702,4.758,5.057,274.982,216.863,229.499
0.361,38.857,4.831,5.096,275.101,216.826,229.408
0.362,38.988,4.896,5.128,275.203,216.794,229.331
0.364,39.096,4.949,5.151,275.288,216.768,229.271
0.365,39.180,4.988,5.165,275.358,216.748,229.227
0.366,39.246,5.013,5.171,275.415,216.733,229.199
0.367,39.295,5.027,5.171,275.460,216.723,229.184
0.369,39.331,5.033,5.168,275.496,216.716,229.181
0.370,39.361,5.034,5.164,275.525,216.713,229.189
0.371,39.389,5.031,5.162,275.547,216.713,229.207
0.373,39.422,5.029,5.162,275.566,216.716,229.233
0.374,39.459,5.028,5.169,275.583,216.720,229.266
0.375,39.501,5.032,5.182,275.600,216.726,229.304
0.377,39.549,5.040,5.202,275.619,216.733,229.347
0.378,39.601,5.052,5.225,275.642,216.740,229.393
0.379,39.657,5.066,5.252,275.671,216.747,229.440
0.381,39.717,5.083,5.280,275.708,216.754,229.488
0.382,39.782,5.102,5.308,275.751,216.760,229.536
0.383,39.850,5.123,5.334,275.799,216.766,229.583
0.385,39.920,5.145,5.358,275.851,216.771,229.630
0.386,39.992,5.168,5.377,275.907,216.777,229.676
0.387,40.064,5.190,5.394,275.963,216.782,229.720
0.388,40.136,5.211,5.408,276.021,216.788,229.762
0.390,40.205,5.231,5.420,276.077,216.793,229.803
0.391,40.272,5.249,5.431,276.131,216.800,229.841
0.392,40.334,5.263,5.440,276.182,216.806,229.876
0.394,40.391,5.273,5.449,276.228,216.814,229.908
0.395,40.441,5.279,5.457,276.269,216.822,229.937
0.396,40.483,5.281,5.465,276.302,216.831,229.962
0.398,40.518,5.280,5.473,276.327,216.841,229.983
0.399,40.544,5.278,5.481,276.345,216.852,230.000
0.400,40.565,5.275,5.488,276.356,216.863,230.013
0.402,40.582,5.273,5.494,276.363,216.873,230.024
0.403,40.595,5.272,5.499,276.367,216.882,230.033
0.404,40.604,5.275,5.504,276.368,216.889,230.040
0.406,40.612,5.281,5.507,276.370,216.893,230.045
0.407,40.617,5.290,5.510,276.372,216.895,230.049
0.408,40.623,5.301,5.512,276.377,216.893,230.053
0.409,40.634,5.314,5.513,276.386,216.886,230.056
0.411,40.653,5.327,5.515,276.400,216.875,230.060
0.412,40.679,5.341,5.517,276.420,216.858,230.065
0.413,40.716,5.353,5.519,276.448,216.836,230.071
0.415,40.765,5.365,5.521,276.486,216.806,230.079
0.416,40.825,5.374,5.525,276.533,216.770,230.089
0.417,40.894,5.383,5.529,276.588,216.729,230.100
0.419,40.973,5.390,5.535,276.650,216.683,230.113
0.420,41.059,5.398,5.542,276.718,216.632,230.128
0.421,41.150,5.406,5.550,276.791,216.578,230.143
0.423,41.247,5.414,5.561,276.867,216.522,230.160
0.424,41.347,5.424,5.573,276.946,216.463,230.177
0.425,41.450,5.436,5.588,277.027,216.403,230.196
0.427,41.553,5.450,5.605,277.109,216.342,230.215
0.428,41.656,5.465,5.623,277.189,216.282,230.234
0.429,41.757,5.480,5.643,277.269,216.222,230.254
0.430,41.855,5.496,5.664,277.346,216.164,230.274
0.432,41.950,5.512,5.687,277.419,216.108,230.295
0.433,42.039,5.527,5.709,277.488,216.055,230.315
0.434,42.125,5.542,5.733,277.554,216.004,230.334
0.436,42.207,5.555,5.756,277.618,215.955,230.353
0.437,42.286,5.567,5.779,277.679,215.909,230.371
0.438,42.363,5.580,5.801,277.739,215.864,230.388
0.440,42.438,5.593,5.822,277.799,215.821,230.403
0.441,42.511,5.609,5.841,277.858,215.780,230.416
0.442,42.584,5.627,5.858,277.918,215.740,230.427
0.444,42.657,5.649,5.872,277.979,215.702,230.435
0.445,42.730,5.675,5.884,278.042,215.665,230.440
0.446,42.805,5.706,5.892,278.107,215.628,230.443
0.448,42.881,5.740,5.897,278.175,215.593,230.441
0.449,42.961,5.776,5.902,278.247,215.558,230.437
0.450,43.044,5.813,5.906,278.322,215.524,230.429
0.451,43.130,5.850,5.911,278.400,215.490,230.418
0.453,43.216,5.886,5.917,278.480,215.458,230.406
0.454,43.303,5.919,5.926,278.560,215.428,230.394
0.455,43.389,5.948,5.938,278.640,215.399,230.382
0.457,43.472,5.973,5.953,278.718,215.371,230.372
0.458,43.553,5.993,5.970,278.794,215.346,230.365
0.459,43.629,6.009,5.987,278.867,215.324,230.362
0.461,43.700,6.021,6.002,278.935,215.304,230.364
0.462,43.766,6.028,6.015,278.999,215.287,230.372
0.463,43.827,6.031,6.024,279.056,215.273,230.387
0.465,43.883,6.029,6.028,279.106,215.262,230.410
0.466,43.936,6.022,6.026,279.147,215.255,230.442
0.467,43.989,6.012,6.018,279.180,215.252,230.483
0.469,44.046,5.998,6.005,279.207,215.252,230.534
0.470,44.109,5.982,5.988,279.228,215.256,230.593
0.471,44.178,5.964,5.969,279.246,215.263,230.659
0.472,44.254,5.944,5.947,279.261,215.273,230.733
0.474,44.337,5.924,5.925,279.276,215.286,230.813
0.475,44.426,5.904,5.903,279.293,215.302,230.899
0.476,44.521,5.884,5.882,279.312,215.320,230.990
0.478,44.621,5.864,5.861,279.335,215.341,231.086
0.479,44.727,5.844,5.841,279.365,215.364,231.185
0.480,44.839,5.824,5.822,279.403,215.390,231.288
0.482,44.958,5.804,5.802,279.449,215.417,231.393
0.483,45.082,5.783,5.781,279.507,215.446,231.500
0.484,45.215,5.761,5.761,279.576,215.476,231.608
0.486,45.353,5.739,5.739,279.656,215.508,231.716
0.487,45.496,5.715,5.717,279.744,215.541,231.825
0.488,45.643,5.692,5.695,279.839,215.574,231.932
0.490,45.792,5.668,5.673,279.939,215.608,232.037
0.491,45.941,5.646,5.651,280.042,215.642,232.139
0.492,46.088,5.626,5.631,280.146,215.675,232.237
0.493,46.232,5.608,5.612,280.250,215.708,232.332
0.495,46.371,5.593,5.594,280.352,215.740,232.421
0.496,46.504,5.582,5.578,280.450,215.771,232.504
0.497,46.627,5.574,5.565,280.542,215.800,232.580
0.499,46.739,5.568,5.554,280.627,215.827,232.649
0.500,46.839,5.563,5.546,280.702,215.852,232.709
0.501,46.925,5.559,5.541,280.767,215.874,232.761
0.503,46.997,5.554,5.538,280.821,215.894,232.804
0.504,47.057,5.548,5.539,280.866,215.912,232.840
0.505,47.105,5.541,5.543,280.900,215.927,232.870
0.507,47.143,5.530,5.550,280.926,215.941,232.895
0.508,47.172,5.518,5.558,280.944,215.953,232.915
0.509,47.194,5.505,5.567,280.953,215.962,232.931
0.510,47.210,5.491,5.574,280.956,215.971,232.945
0.512,47.225,5.476,5.577,280.951,215.978,232.957
0.513,47.242,5.463,5.577,280.940,215.983,232.969
0.514,47.263,5.450,5.570,280.924,215.987,232.981
0.516,47.288,5.440,5.555,280.902,215.991,232.994
0.517,47.319,5.431,5.533,280.876,215.993,233.010
0.518,47.354,5.424,5.506,280.845,215.994,233.028
0.520,47.393,5.419,5.478,280.813,215.995,233.049
0.521,47.432,5.415,5.452,280.780,215.996,233.070
0.522,47.470,5.413,5.430,280.749,215.996,233.091
0.524,47.503,5.411,5.415,280.721,215.996,233.110
0.525,47.531,5.411,5.410,280.700,215.996,233.127
0.526,47.549,5.410,5.418,280.686,215.996,233.139
0.528,47.557,5.410,5.436,280.682,215.997,233.146
0.529,47.565,5.411,5.461,280.690,215.998,233.146
0.530,47.589,5.411,5.489,280.712,216.000,233.138
0.531,47.630,5.410,5.516,280.750,216.003,233.121
0.533,47.693,5.409,5.538,280.806,216.007,233.094
0.534,47.779,5.408,5.551,280.882,216.012,233.054
