"T","Distance","Radius","FreeRadius","X","Y","Z"
0.000,0.000,2.133,2.133,-70.754,-48.897,-1.729
0.001,0.103,2.182,2.182,-70.706,-48.864,-1.643
0.003,0.206,2.230,2.230,-70.659,-48.831,-1.558
0.004,0.308,2.278,2.278,-70.612,-48.799,-1.474
0.005,0.408,2.326,2.326,-70.564,-48.770,-1.390
0.006,0.507,2.373,2.373,-70.516,-48.744,-1.308
0.008,0.604,2.419,2.419,-70.467,-48.723,-1.227
0.009,0.699,2.464,2.464,-70.419,-48.706,-1.148
0.010,0.791,2.509,2.509,-70.369,-48.694,-1.071
0.011,0.881,2.552,2.552,-70.320,-48.689,-0.996
0.013,0.969,2.593,2.593,-70.269,-48.691,-0.924
0.014,1.055,2.633,2.633,-70.218,-48.701,-0.855
0.015,1.141,2.670,2.670,-70.166,-48.720,-0.789
0.016,1.227,2.706,2.706,-70.113,-48.747,-0.727
0.018,1.313,2.738,2.738,-70.061,-48.781,-0.668
0.019,1.398,2.768,2.768,-70.009,-48.821,-0.614
0.020,1.481,2.795,2.795,-69.959,-48.865,-0.563
0.021,1.562,2.819,2.819,-69.910,-48.911,-0.517
0.023,1.640,2.839,2.839,-69.864,-48.957,-0.476
0.024,1.712,2.856,2.856,-69.822,-49.003,-0.440
0.025,1.778,2.871,2.871,-69.783,-49.046,-0.409
0.026,1.836,2.883,2.883,-69.748,-49.085,-0.383
0.028,1.885,2.892,2.892,-69.719,-49.119,-0.362
0.029,1.924,2.899,2.899,-69.696,-49.146,-0.348
0.030,1.950,2.905,2.905,-69.678,-49.164,-0.339
0.031,1.967,2.908,2.908,-69.666,-49.174,-0.334
0.033,1.978,2.910,2.910,-69.656,-49.178,-0.332
0.034,1.987,2.913,2.913,-69.647,-49.178,-0.330
0.035,1.998,2.917,2.917,-69.637,-49.175,-0.325
0.036,2.015,2.923,2.923,-69.624,-49.170,-0.317
0.038,2.039,2.933,2.933,-69.606,-49.165,-0.301
0.039,2.075,2.947,2.947,-69.580,-49.162,-0.278
0.040,2.124,2.968,2.968,-69.545,-49.162,-0.243
0.041,2.190,2.995,2.995,-69.498,-49.167,-0.196
0.043,2.277,3.029,3.029,-69.439,-49.179,-0.134
0.044,2.388,3.072,3.072,-69.364,-49.199,-0.055
0.045,2.524,3.123,3.123,-69.273,-49.227,0.042
0.046,2.681,3.183,3.183,-69.169,-49.264,0.154
0.048,2.855,3.253,3.253,-69.055,-49.307,0.279
0.049,3.042,3.332,3.332,-68.934,-49.355,0.413
0.050,3.238,3.422,3.422,-68.810,-49.408,0.554
0.051,3.437,3.523,3.523,-68.685,-49.463,0.699
0.053,3.635,3.632,3.632,-68.563,-49.521,0.845
0.054,3.829,3.746,3.746,-68.446,-49.579,0.988
0.055,4.014,3.861,3.861,-68.339,-49.637,1.127
0.056,4.185,3.974,3.974,-68.244,-49.693,1.259
0.058,4.339,4.081,4.081,-68.164,-49.746,1.379
0.059,4.473,4.178,4.178,-68.103,-49.794,1.487
0.060,4.585,4.261,4.261,-68.060,-49.839,1.581
0.061,4.680,4.327,4.327,-68.033,-49.882,1.661
0.063,4.761,4.374,4.374,-68.020,-49.922,1.730
0.064,4.831,4.405,4.405,-68.019,-49.962,1.788
0.065,4.894,4.422,4.422,-68.028,-50.002,1.836
0.066,4.954,4.426,4.426,-68.044,-50.044,1.875
0.068,5.012,4.418,4.418,-68.067,-50.088,1.905
0.069,5.072,4.402,4.402,-68.092,-50.136,1.929
0.070,5.133,4.378,4.378,-68.119,-50.189,1.947
0.071,5.199,4.349,4.349,-68.145,-50.248,1.959
0.073,5.269,4.316,4.316,-68.169,-50.314,1.967
0.074,5.345,4.281,4.281,-68.187,-50.387,1.972
0.075,5.424,4.246,4.246,-68.201,-50.465,1.974
0.076,5.505,4.211,4.211,-68.211,-50.545,1.975
0.078,5.585,4.178,4.178,-68.216,-50.625,1.976
0.079,5.661,4.150,4.150,-68.217,-50.701,1.977
0.080,5.732,4.127,4.127,-68.214,-50.772,1.978
0.081,5.793,4.110,4.110,-68.207,-50.833,1.982
0.083,5.844,4.102,4.102,-68.197,-50.882,1.989
0.084,5.883,4.099,4.099,-68.183,-50.917,1.999
0.085,5.911,4.102,4.102,-68.167,-50.934,2.014
0.086,5.940,4.109,4.109,-68.148,-50.932,2.035
0.088,5.983,4.120,4.120,-68.126,-50.906,2.062
0.089,6.046,4.132,4.132,-68.101,-50.859,2.095
0.090,6.124,4.145,4.145,-68.072,-50.798,2.135
0.091,6.212,4.157,4.157,-68.037,-50.730,2.180
0.093,6.305,4.168,4.168,-67.997,-50.663,2.230
0.094,6.399,4.178,4.178,-67.948,-50.604,2.284
0.095,6.492,4.185,4.185,-67.891,-50.561,2.343
0.096,6.585,4.191,4.191,-67.824,-50.541,2.404
0.098,6.687,4.193,4.193,-67.745,-50.551,2.469
0.099,6.809,4.192,4.192,-67.655,-50.599,2.535
0.100,6.965,4.188,4.188,-67.551,-50.692,2.604
0.101,7.165,4.180,4.180,-67.432,-50.838,2.673
0.103,7.420,4.168,4.168,-67.298,-51.043,2.743
0.104,7.725,4.153,4.153,-67.150,-51.300,2.814
0.105,8.071,4.137,4.137,-66.992,-51.600,2.886
0.106,8.451,4.120,4.120,-66.826,-51.934,2.959
0.108,8.853,4.105,4.105,-66.654,-52.290,3.034
0.109,9.269,4.091,4.091,-66.481,-52.659,3.111
0.110,9.687,4.081,4.081,-66.308,-53.032,3.190
0.111,10.099,4.076,4.076,-66.138,-53.398,3.272
0.113,10.493,4.076,4.076,-65.974,-53.747,3.356
0.114,10.861,4.083,4.083,-65.820,-54.069,3.444
0.115,11.193,4.096,4.096,-65.677,-54.355,3.535
0.116,11.481,4.116,4.116,-65.549,-54.594,3.630
0.118,11.720,4.144,4.144,-65.437,-54.782,3.728
0.119,11.918,4.179,4.179,-65.341,-54.922,3.828
0.120,12.082,4.222,4.222,-65.259,-55.021,3.929
0.121,12.218,4.274,4.274,-65.189,-55.084,4.028
0.123,12.335,4.334,4.334,-65.132,-55.117,4.125
0.124,12.438,4.400,4.400,-65.085,-55.125,4.217
0.125,12.533,4.469,4.469,-65.048,-55.113,4.302
0.126,12.620,4.537,4.537,-65.019,-55.088,4.380
0.128,12.699,4.602,4.602,-64.997,-55.055,4.449
0.129,12.768,4.662,4.662,-64.981,-55.020,4.507
0.130,12.825,4.712,4.712,-64.970,-54.987,4.552
0.131,12.865,4.750,4.750,-64.963,-54.963,4.583
0.133,12.889,4.774,4.774,-64.958,-54.948,4.601
0.134,12.900,4.786,4.786,-64.955,-54.942,4.610
0.135,12.904,4.788,4.788,-64.952,-54.944,4.612
0.136,12.912,4.784,4.784,-64.949,-54.951,4.612
0.138,12.924,4.775,4.775,-64.944,-54.963,4.612
0.139,12.942,4.766,4.766,-64.937,-54.978,4.616
0.140,12.965,4.759,4.759,-64.926,-54.995,4.626
0.141,12.996,4.757,4.757,-64.911,-55.014,4.646
0.143,13.040,4.762,4.762,-64.889,-55.031,4.680
0.144,13.099,4.775,4.775,-64.861,-55.048,4.730
0.145,13.179,4.795,4.796,-64.826,-55.061,4.800
0.146,13.281,4.822,4.822,-64.782,-55.070,4.892
0.148,13.403,4.855,4.855,-64.731,-55.076,5.003
0.149,13.542,4.894,4.894,-64.674,-55.078,5.129
0.150,13.693,4.938,4.938,-64.612,-55.078,5.267
0.151,13.853,4.986,4.986,-64.546,-55.076,5.413
0.153,14.019,5.039,5.039,-64.479,-55.072,5.564
0.154,14.185,5.095,5.094,-64.411,-55.068,5.716
0.155,14.349,5.152,5.151,-64.343,-55.063,5.865
0.156,14.506,5.209,5.208,-64.277,-55.057,6.008
0.158,14.654,5.264,5.264,-64.214,-55.053,6.141
0.159,14.787,5.317,5.316,-64.155,-55.049,6.260
0.160,14.902,5.365,5.365,-64.102,-55.047,6.363
0.161,14.999,5.407,5.407,-64.055,-55.047,6.448
0.163,15.080,5.443,5.443,-64.013,-55.049,6.516
0.164,15.147,5.471,5.472,-63.975,-55.053,6.571
0.165,15.203,5.494,5.495,-63.939,-55.059,6.614
0.166,15.251,5.512,5.514,-63.905,-55.066,6.646
0.168,15.294,5.527,5.529,-63.871,-55.076,6.671
0.169,15.334,5.540,5.542,-63.837,-55.088,6.691
0.170,15.375,5.552,5.553,-63.802,-55.101,6.706
0.171,15.418,5.564,5.564,-63.764,-55.117,6.720
0.173,15.465,5.577,5.576,-63.723,-55.135,6.734
0.174,15.518,5.592,5.589,-63.677,-55.155,6.750
0.175,15.578,5.608,5.604,-63.626,-55.177,6.771
0.176,15.643,5.626,5.621,-63.570,-55.201,6.795
0.178,15.713,5.645,5.639,-63.511,-55.226,6.823
0.179,15.786,5.665,5.659,-63.450,-55.250,6.854
0.180,15.860,5.687,5.682,-63.388,-55.273,6.888
0.181,15.934,5.709,5.707,-63.327,-55.295,6.922
0.183,16.005,5.732,5.735,-63.268,-55.315,6.958
0.184,16.074,5.756,5.764,-63.212,-55.332,6.994
0.185,16.137,5.779,5.795,-63.161,-55.344,7.030
0.186,16.195,5.803,5.826,-63.116,-55.353,7.064
0.188,16.245,5.827,5.857,-63.078,-55.355,7.097
0.189,16.288,5.850,5.886,-63.049,-55.352,7.128
0.190,16.324,5.872,5.913,-63.029,-55.342,7.157
0.191,16.358,5.892,5.936,-63.016,-55.326,7.184
0.193,16.392,5.911,5.955,-63.011,-55.306,7.211
0.194,16.430,5.929,5.970,-63.010,-55.281,7.239
0.195,16.471,5.945,5.981,-63.013,-55.252,7.269
0.196,16.517,5.958,5.989,-63.018,-55.221,7.302
0.198,16.568,5.971,5.994,-63.024,-55.187,7.340
0.199,16.624,5.981,5.997,-63.030,-55.152,7.383
0.200,16.685,5.990,5.999,-63.034,-55.117,7.432
0.201,16.752,5.997,6.000,-63.035,-55.082,7.490
0.203,16.827,6.002,6.000,-63.031,-55.047,7.556
0.204,16.910,6.005,6.001,-63.021,-55.014,7.632
0.205,17.002,6.007,6.003,-63.006,-54.983,7.717
0.206,17.101,6.009,6.004,-62.986,-54.954,7.810
0.208,17.206,6.009,6.006,-62.964,-54.928,7.908
0.209,17.314,6.010,6.007,-62.940,-54.905,8.011
0.210,17.424,6.010,6.009,-62.916,-54.886,8.117
0.211,17.534,6.012,6.011,-62.893,-54.870,8.224
0.213,17.643,6.014,6.014,-62.872,-54.858,8.330
0.214,17.749,6.017,6.016,-62.855,-54.850,8.434
0.215,17.850,6.023,6.021,-62.844,-54.847,8.534
0.216,17.945,6.031,6.028,-62.839,-54.849,8.629
0.218,18.033,6.043,6.038,-62.841,-54.856,8.717
0.219,18.114,6.059,6.054,-62.852,-54.869,8.797
0.220,18.191,6.080,6.075,-62.869,-54.885,8.870
0.221,18.265,6.106,6.103,-62.887,-54.904,8.939
0.223,18.335,6.138,6.140,-62.904,-54.923,9.005
0.224,18.404,6.176,6.184,-62.917,-54.940,9.069
0.225,18.471,6.217,6.232,-62.921,-54.954,9.135
0.226,18.540,6.258,6.282,-62.915,-54.963,9.203
0.228,18.616,6.295,6.329,-62.894,-54.966,9.276
0.229,18.704,6.325,6.369,-62.855,-54.961,9.355
0.230,18.811,6.346,6.401,-62.795,-54.945,9.442
0.231,18.943,6.353,6.418,-62.711,-54.918,9.539
0.233,19.104,6.345,6.419,-62.599,-54.877,9.648
0.234,19.296,6.319,6.402,-62.459,-54.823,9.769
0.235,19.513,6.277,6.367,-62.297,-54.759,9.898
0.236,19.750,6.224,6.320,-62.117,-54.687,10.035
0.238,20.002,6.162,6.261,-61.924,-54.610,10.175
0.239,20.262,6.095,6.195,-61.721,-54.530,10.318
0.240,20.525,6.026,6.125,-61.514,-54.451,10.461
0.241,20.786,5.957,6.053,-61.308,-54.374,10.600
0.243,21.039,5.893,5.982,-61.106,-54.302,10.734
0.244,21.278,5.836,5.915,-60.913,-54.239,10.861
0.245,21.498,5.786,5.854,-60.735,-54.186,10.978
0.246,21.693,5.742,5.798,-60.575,-54.146,11.082
0.248,21.859,5.706,5.748,-60.437,-54.122,11.172
0.249,21.998,5.677,5.706,-60.321,-54.112,11.248
0.250,22.113,5.655,5.672,-60.225,-54.114,11.311
0.251,22.208,5.639,5.646,-60.147,-54.126,11.363
0.253,22.286,5.630,5.630,-60.084,-54.145,11.404
0.254,22.350,5.628,5.624,-60.035,-54.171,11.437
0.255,22.403,5.630,5.627,-59.999,-54.201,11.461
0.256,22.447,5.637,5.636,-59.972,-54.232,11.480
0.258,22.485,5.647,5.649,-59.953,-54.262,11.492
0.259,22.517,5.658,5.664,-59.940,-54.290,11.501
0.260,22.542,5.670,5.680,-59.932,-54.313,11.506
0.261,22.560,5.680,5.695,-59.925,-54.329,11.510
0.263,22.571,5.689,5.705,-59.918,-54.338,11.513
0.264,22.579,5.694,5.711,-59.912,-54.340,11.516
0.265,22.588,5.696,5.711,-59.903,-54.338,11.520
0.266,22.601,5.694,5.706,-59.893,-54.334,11.524
0.268,22.617,5.689,5.697,-59.879,-54.328,11.529
0.269,22.637,5.681,5.685,-59.861,-54.323,11.537
0.270,22.663,5.669,5.671,-59.837,-54.321,11.547
0.271,22.695,5.654,5.654,-59.808,-54.323,11.560
0.273,22.735,5.636,5.635,-59.772,-54.330,11.577
0.274,22.787,5.614,5.616,-59.728,-54.346,11.598
0.275,22.850,5.589,5.595,-59.675,-54.370,11.623
0.276,22.928,5.560,5.573,-59.612,-54.406,11.654
0.278,23.020,5.527,5.548,-59.541,-54.453,11.688
0.279,23.125,5.490,5.519,-59.462,-54.510,11.726
0.280,23.239,5.449,5.486,-59.377,-54.576,11.764
0.281,23.363,5.404,5.449,-59.287,-54.652,11.802
0.283,23.493,5.354,5.406,-59.195,-54.737,11.839
0.284,23.629,5.299,5.357,-59.100,-54.829,11.872
0.285,23.769,5.240,5.304,-59.006,-54.928,11.901
0.286,23.912,5.180,5.247,-58.912,-55.034,11.923
0.288,24.057,5.119,5.190,-58.821,-55.145,11.937
0.289,24.202,5.059,5.134,-58.734,-55.261,11.942
0.290,24.348,5.001,5.082,-58.653,-55.382,11.937
0.291,24.495,4.948,5.035,-58.578,-55.507,11.920
0.293,24.643,4.901,4.996,-58.508,-55.635,11.896
0.294,24.792,4.861,4.966,-58.442,-55.767,11.868
0.295,24.944,4.828,4.944,-58.377,-55.901,11.841
0.296,25.096,4.798,4.925,-58.313,-56.037,11.818
0.298,25.249,4.769,4.907,-58.248,-56.175,11.804
0.299,25.405,4.739,4.886,-58.181,-56.315,11.803
0.300,25.564,4.704,4.857,-58.109,-56.456,11.819
0.301,25.729,4.662,4.817,-58.032,-56.598,11.856
0.303,25.906,4.611,4.763,-57.948,-56.741,11.918
0.304,26.099,4.547,4.690,-57.855,-56.883,12.009
0.305,26.314,4.471,4.600,-57.752,-57.025,12.134
0.306,26.553,4.386,4.497,-57.639,-57.167,12.290
0.308,26.816,4.296,4.386,-57.517,-57.308,12.475
0.309,27.097,4.203,4.270,-57.389,-57.449,12.682
0.310,27.395,4.110,4.155,-57.257,-57.589,12.909
0.311,27.704,4.021,4.045,-57.121,-57.729,13.148
0.313,28.020,3.938,3.945,-56.985,-57.869,13.397
0.314,28.339,3.864,3.859,-56.849,-58.008,13.650
0.315,28.657,3.802,3.788,-56.715,-58.147,13.903
0.316,28.968,3.750,3.733,-56.586,-58.286,14.150
0.318,29.269,3.710,3.693,-56.463,-58.424,14.387
0.319,29.555,3.682,3.667,-56.347,-58.562,14.609
0.320,29.823,3.666,3.655,-56.241,-58.700,14.812
0.321,30.071,3.662,3.656,-56.144,-58.836,14.996
0.323,30.301,3.671,3.669,-56.056,-58.969,15.161
0.324,30.511,3.693,3.694,-55.976,-59.098,15.308
0.325,30.703,3.726,3.729,-55.906,-59.220,15.437
0.326,30.875,3.767,3.772,-55.843,-59.335,15.549
0.328,31.028,3.814,3.819,-55.788,-59.442,15.644
0.329,31.161,3.863,3.868,-55.740,-59.538,15.723
0.330,31.274,3.911,3.915,-55.700,-59.622,15.786
0.331,31.367,3.955,3.957,-55.666,-59.693,15.835
0.333,31.438,3.991,3.992,-55.638,-59.750,15.868
0.334,31.488,4.017,4.017,-55.617,-59.790,15.889
0.335,31.518,4.032,4.030,-55.602,-59.815,15.897
0.336,31.534,4.037,4.034,-55.591,-59.826,15.896
0.338,31.542,4.035,4.031,-55.584,-59.828,15.892
0.339,31.551,4.028,4.024,-55.580,-59.822,15.887
0.340,31.560,4.018,4.014,-55.578,-59.813,15.886
0.341,31.573,4.008,4.005,-55.577,-59.803,15.893
0.343,31.593,3.999,3.998,-55.576,-59.794,15.911
0.344,31.627,3.994,3.995,-55.575,-59.792,15.946
0.345,31.681,3.995,3.999,-55.572,-59.797,15.999
0.346,31.761,4.003,4.011,-55.567,-59.813,16.077
0.348,31.871,4.017,4.031,-55.559,-59.844,16.182
0.349,32.015,4.040,4.060,-55.547,-59.892,16.318
0.350,32.194,4.072,4.098,-55.530,-59.956,16.484
0.351,32.400,4.113,4.147,-55.509,-60.034,16.674
0.353,32.630,4.165,4.207,-55.484,-60.123,16.885
0.354,32.879,4.227,4.279,-55.456,-60.221,17.111
0.355,33.140,4.301,4.363,-55.423,-60.324,17.349
0.356,33.410,4.384,4.457,-55.388,-60.432,17.594
0.358,33.682,4.474,4.556,-55.348,-60.540,17.841
0.359,33.953,4.569,4.660,-55.306,-60.646,18.085
0.360,34.216,4.666,4.764,-55.260,-60.749,18.324
0.361,34.467,4.764,4.867,-55.211,-60.845,18.551
0.363,34.701,4.859,4.964,-55.159,-60.932,18.762
0.364,34.915,4.950,5.055,-55.105,-61.008,18.954
0.365,35.110,5.036,5.136,-55.049,-61.074,19.129
0.366,35.287,5.115,5.208,-54.992,-61.131,19.286
0.368,35.447,5.187,5.273,-54.936,-61.180,19.428
0.369,35.592,5.253,5.331,-54.880,-61.223,19.554
0.370,35.723,5.313,5.384,-54.826,-61.261,19.668
0.371,35.841,5.367,5.432,-54.776,-61.295,19.769
0.373,35.947,5.414,5.478,-54.729,-61.325,19.859
0.374,36.042,5.455,5.522,-54.686,-61.354,19.939
0.375,36.127,5.490,5.565,-54.650,-61.382,20.011
0.376,36.204,5.520,5.607,-54.620,-61.411,20.074
0.378,36.273,5.546,5.647,-54.597,-61.442,20.132
0.379,36.336,5.570,5.685,-54.581,-61.474,20.184
0.380,36.396,5.592,5.722,-54.570,-61.508,20.232
0.381,36.452,5.616,5.756,-54.563,-61.542,20.276
0.383,36.507,5.640,5.786,-54.556,-61.577,20.318
0.384,36.561,5.668,5.814,-54.549,-61.611,20.359
0.385,36.614,5.700,5.838,-54.540,-61.645,20.399
0.386,36.667,5.735,5.859,-54.527,-61.676,20.439
0.388,36.722,5.772,5.877,-54.507,-61.706,20.481
0.389,36.780,5.810,5.893,-54.480,-61.733,20.526
0.390,36.845,5.847,5.907,-54.443,-61.756,20.573
0.391,36.918,5.882,5.920,-54.394,-61.776,20.625
0.393,37.004,5.913,5.931,-54.333,-61.791,20.682
0.394,37.100,5.940,5.942,-54.259,-61.805,20.743
0.395,37.206,5.961,5.953,-54.177,-61.819,20.807
0.396,37.320,5.977,5.964,-54.086,-61.836,20.874
0.398,37.440,5.990,5.976,-53.989,-61.859,20.942
0.399,37.566,6.002,5.989,-53.889,-61.891,21.011
0.400,37.697,6.014,6.005,-53.786,-61.935,21.079
0.401,37.832,6.028,6.023,-53.683,-61.992,21.145
0.403,37.972,6.046,6.044,-53.582,-62.065,21.209
0.404,38.120,6.069,6.069,-53.484,-62.158,21.269
0.405,38.277,6.099,6.098,-53.392,-62.273,21.325
0.406,38.448,6.136,6.131,-53.308,-62.412,21.375
0.408,38.633,6.177,6.168,-53.232,-62.575,21.420
0.409,38.831,6.222,6.208,-53.164,-62.758,21.458
0.410,39.038,6.268,6.251,-53.104,-62.953,21.490
0.411,39.251,6.313,6.296,-53.052,-63.157,21.517
0.413,39.463,6.357,6.344,-53.008,-63.364,21.539
0.414,39.672,6.397,6.393,-52.970,-63.569,21.554
0.415,39.871,6.432,6.443,-52.940,-63.765,21.565
0.416,40.056,6.461,6.493,-52.916,-63.949,21.570
0.418,40.222,6.486,6.543,-52.899,-64.114,21.571
0.419,40.364,6.506,6.590,-52.887,-64.255,21.566
0.420,40.476,6.524,6.634,-52.882,-64.367,21.557
0.421,40.556,6.538,6.674,-52.881,-64.445,21.544
0.423,40.606,6.550,6.707,-52.885,-64.493,21.527
0.424,40.636,6.560,6.734,-52.891,-64.515,21.508
0.425,40.655,6.569,6.753,-52.897,-64.518,21.490
0.426,40.675,6.577,6.763,-52.901,-64.508,21.474
0.428,40.696,6.584,6.768,-52.902,-64.491,21.461
0.429,40.716,6.590,6.767,-52.897,-64.473,21.454
0.430,40.734,6.596,6.763,-52.885,-64.459,21.453
0.431,40.757,6.599,6.757,-52.863,-64.457,21.462
0.433,40.798,6.602,6.750,-52.831,-64.472,21.481
0.434,40.865,6.603,6.744,-52.785,-64.510,21.512
0.435,40.966,6.603,6.740,-52.725,-64.578,21.558
0.436,41.104,6.602,6.739,-52.649,-64.677,21.618
0.438,41.275,6.600,6.740,-52.560,-64.804,21.690
0.439,41.472,6.598,6.742,-52.460,-64.953,21.772
0.440,41.689,6.598,6.745,-52.354,-65.119,21.861
0.441,41.918,6.598,6.748,-52.244,-65.296,21.955
0.443,42.154,6.601,6.751,-52.132,-65.480,22.052
0.444,42.389,6.607,6.752,-52.022,-65.664,22.147
0.445,42.617,6.616,6.752,-51.916,-65.844,22.240
0.446,42.831,6.628,6.750,-51.818,-66.013,22.327
0.448,43.025,6.643,6.747,-51.730,-66.167,22.406
0.449,43.191,6.659,6.743,-51.655,-66.299,22.474
0.450,43.325,6.676,6.739,-51.596,-66.406,22.528
0.451,43.424,6.693,6.735,-51.554,-66.486,22.570
0.453,43.494,6.708,6.731,-51.526,-66.542,22.599
0.454,43.537,6.721,6.729,-51.509,-66.578,22.617
0.455,43.558,6.731,6.728,-51.503,-66.596,22.626
0.456,43.563,6.737,6.728,-51.504,-66.600,22.627
0.458,43.574,6.741,6.730,-51.511,-66.593,22.622
0.459,43.595,6.742,6.732,-51.522,-66.577,22.612
0.460,43.623,6.741,6.735,-51.534,-66.557,22.598
0.461,43.653,6.738,6.737,-51.545,-66.535,22.581
0.463,43.681,6.735,6.739,-51.554,-66.514,22.564
0.464,43.705,6.732,6.739,-51.558,-66.498,22.548
0.465,43.722,6.728,6.738,-51.555,-66.488,22.533
0.466,43.737,6.725,6.735,-51.547,-66.486,22.520
0.468,43.754,6.722,6.731,-51.534,-66.492,22.510
0.469,43.774,6.718,6.729,-51.520,-66.503,22.503
0.470,43.799,6.712,6.729,-51.504,-66.522,22.498
0.471,43.828,6.705,6.733,-51.489,-66.546,22.497
0.473,43.861,6.696,6.742,-51.476,-66.577,22.499
0.474,43.899,6.683,6.758,-51.466,-66.613,22.504
0.475,43.941,6.667,6.781,-51.462,-66.654,22.512
0.476,43.989,6.647,6.812,-51.464,-66.701,22.525
0.478,44.044,6.625,6.847,-51.475,-66.752,22.541
0.479,44.107,6.602,6.885,-51.495,-66.808,22.562
0.480,44.178,6.579,6.921,-51.524,-66.868,22.587
0.481,44.258,6.559,6.953,-51.558,-66.934,22.617
0.483,44.345,6.543,6.978,-51.593,-67.006,22.651
0.484,44.439,6.532,6.991,-51.624,-67.085,22.691
0.485,44.540,6.527,6.991,-51.648,-67.172,22.736
0.486,44.648,6.529,6.974,-51.660,-67.267,22.786
0.488,44.768,6.535,6.942,-51.656,-67.372,22.842
0.489,44.901,6.541,6.896,-51.633,-67.488,22.904
0.490,45.053,6.542,6.837,-51.585,-67.615,22.973
0.491,45.228,6.535,6.766,-51.508,-67.754,23.047
0.493,45.431,6.516,6.685,-51.400,-67.905,23.129
0.494,45.668,6.481,6.594,-51.255,-68.070,23.216
0.495,45.936,6.426,6.495,-51.078,-68.248,23.310
0.496,46.231,6.349,6.390,-50.872,-68.436,23.406
0.498,46.549,6.253,6.278,-50.643,-68.634,23.504
0.499,46.884,6.141,6.163,-50.397,-68.840,23.601
0.500,47.232,6.019,6.045,-50.137,-69.051,23.695
0.501,47.586,5.891,5.926,-49.871,-69.267,23.784
0.503,47.943,5.761,5.807,-49.601,-69.486,23.866
0.504,48.296,5.633,5.690,-49.335,-69.706,23.940
0.505,48.640,5.512,5.576,-49.077,-69.926,24.002
0.506,48.972,5.402,5.467,-48.832,-70.143,24.051
0.508,49.285,5.302,5.364,-48.605,-70.357,24.086
0.509,49.579,5.214,5.268,-48.400,-70.565,24.104
0.510,49.853,5.138,5.181,-48.216,-70.768,24.109
0.511,50.109,5.073,5.104,-48.053,-70.965,24.100
0.513,50.348,5.020,5.040,-47.909,-71.156,24.082
0.514,50.571,4.979,4.988,-47.784,-71.339,24.054
0.515,50.780,4.950,4.951,-47.676,-71.514,24.020
0.516,50.974,4.933,4.930,-47.585,-71.682,23.981
0.518,51.155,4.927,4.922,-47.511,-71.840,23.938
0.519,51.321,4.929,4.926,-47.451,-71.990,23.895
0.520,51.475,4.938,4.938,-47.405,-72.130,23.853
0.521,51.614,4.951,4.956,-47.372,-72.259,23.813
0.523,51.740,4.967,4.977,-47.352,-72.378,23.777
0.524,51.853,4.984,4.998,-47.340,-72.487,23.747
