"T","Distance","Radius","FreeRadius","X","Y","Z"
0.000,0.000,3.470,3.470,309.931,276.720,279.215
0.001,0.043,3.433,3.433,309.896,276.738,279.198
0.003,0.083,3.398,3.398,309.863,276.755,279.182
0.004,0.118,3.366,3.366,309.834,276.769,279.169
0.006,0.145,3.340,3.340,309.810,276.778,279.160
0.007,0.163,3.321,3.321,309.793,276.782,279.155
0.009,0.173,3.312,3.312,309.785,276.777,279.156
0.010,0.189,3.313,3.313,309.787,276.763,279.165
0.011,0.223,3.327,3.327,309.801,276.739,279.182
0.013,0.276,3.352,3.352,309.829,276.702,279.210
0.014,0.353,3.385,3.385,309.873,276.652,279.248
0.016,0.457,3.425,3.425,309.934,276.586,279.298
0.017,0.588,3.470,3.470,310.014,276.504,279.362
0.019,0.743,3.516,3.516,310.111,276.407,279.437
0.020,0.919,3.562,3.562,310.220,276.298,279.520
0.021,1.110,3.607,3.607,310.340,276.180,279.610
0.023,1.311,3.649,3.649,310.467,276.055,279.704
0.024,1.518,3.690,3.690,310.598,275.926,279.799
0.026,1.726,3.731,3.731,310.729,275.795,279.893
0.027,1.930,3.772,3.772,310.858,275.665,279.984
0.029,2.125,3.813,3.813,310.981,275.540,280.068
0.030,2.307,3.855,3.855,311.095,275.420,280.144
0.031,2.471,3.900,3.900,311.198,275.310,280.208
0.033,2.612,3.944,3.944,311.285,275.211,280.259
0.034,2.732,3.987,3.987,311.358,275.123,280.297
0.036,2.832,4.026,4.026,311.417,275.047,280.323
0.037,2.913,4.059,4.059,311.464,274.983,280.338
0.039,2.977,4.084,4.084,311.498,274.928,280.344
0.040,3.028,4.098,4.098,311.522,274.885,280.341
0.041,3.066,4.101,4.101,311.537,274.851,280.332
0.043,3.095,4.092,4.092,311.543,274.827,280.317
0.044,3.120,4.076,4.076,311.542,274.811,280.297
0.046,3.145,4.054,4.054,311.534,274.805,280.273
0.047,3.174,4.029,4.029,311.522,274.807,280.248
0.049,3.207,4.005,4.005,311.505,274.817,280.221
0.050,3.243,3.983,3.983,311.486,274.833,280.195
0.052,3.279,3.966,3.966,311.467,274.853,280.171
0.053,3.313,3.955,3.955,311.450,274.872,280.150
0.054,3.340,3.950,3.950,311.437,274.890,280.133
0.056,3.357,3.948,3.948,311.432,274.902,280.122
0.057,3.364,3.950,3.950,311.435,274.906,280.119
0.059,3.380,3.956,3.956,311.450,274.900,280.123
0.060,3.418,3.963,3.963,311.478,274.880,280.138
0.062,3.480,3.972,3.972,311.521,274.844,280.163
0.063,3.571,3.982,3.982,311.583,274.789,280.202
0.064,3.694,3.996,3.996,311.665,274.713,280.253
0.066,3.848,4.014,4.014,311.765,274.616,280.318
0.067,4.026,4.038,4.038,311.881,274.502,280.393
0.069,4.223,4.068,4.068,312.008,274.376,280.475
0.070,4.433,4.107,4.107,312.144,274.242,280.561
0.072,4.650,4.154,4.154,312.284,274.102,280.650
0.073,4.867,4.209,4.209,312.425,273.962,280.738
0.074,5.080,4.269,4.269,312.563,273.825,280.823
0.076,5.281,4.329,4.329,312.696,273.695,280.902
0.077,5.466,4.388,4.388,312.818,273.576,280.972
0.079,5.628,4.441,4.441,312.928,273.471,281.030
0.080,5.762,4.485,4.485,313.021,273.386,281.075
0.082,5.867,4.518,4.518,313.096,273.320,281.106
0.083,5.948,4.538,4.538,313.158,273.270,281.125
0.084,6.009,4.547,4.547,313.207,273.237,281.134
0.086,6.054,4.549,4.549,313.247,273.215,281.137
0.087,6.090,4.544,4.544,313.281,273.205,281.135
0.089,6.120,4.537,4.537,313.311,273.203,281.132
0.090,6.150,4.527,4.527,313.340,273.207,281.128
0.092,6.182,4.519,4.519,313.371,273.215,281.128
0.093,6.218,4.513,4.513,313.406,273.225,281.132
0.094,6.262,4.509,4.509,313.447,273.235,281.144
0.096,6.319,4.508,4.508,313.499,273.242,281.165
0.097,6.388,4.509,4.509,313.560,273.245,281.197
0.099,6.469,4.513,4.513,313.631,273.243,281.237
0.100,6.559,4.520,4.520,313.708,273.238,281.282
0.102,6.655,4.529,4.529,313.792,273.227,281.330
0.103,6.757,4.542,4.542,313.879,273.212,281.378
0.104,6.860,4.555,4.555,313.969,273.191,281.425
0.106,6.963,4.569,4.569,314.060,273.165,281.467
0.107,7.065,4.581,4.581,314.150,273.134,281.503
0.109,7.164,4.592,4.592,314.237,273.096,281.530
0.110,7.260,4.599,4.599,314.321,273.052,281.545
0.112,7.353,4.602,4.602,314.399,273.002,281.546
0.113,7.445,4.600,4.600,314.471,272.947,281.534
0.114,7.535,4.593,4.593,314.539,272.891,281.513
0.116,7.621,4.583,4.583,314.602,272.837,281.488
0.117,7.700,4.570,4.570,314.662,272.792,281.465
0.119,7.770,4.554,4.554,314.721,272.758,281.448
0.120,7.831,4.537,4.537,314.779,272.739,281.443
0.122,7.891,4.519,4.519,314.837,272.740,281.454
0.123,7.964,4.500,4.500,314.898,272.765,281.487
0.124,8.066,4.482,4.482,314.961,272.819,281.547
0.126,8.208,4.464,4.464,315.028,272.905,281.639
0.127,8.400,4.447,4.447,315.100,273.027,281.767
0.129,8.643,4.431,4.431,315.178,273.186,281.934
0.130,8.933,4.417,4.417,315.261,273.375,282.136
0.132,9.259,4.405,4.405,315.350,273.587,282.368
0.133,9.614,4.394,4.394,315.445,273.814,282.624
0.134,9.989,4.384,4.384,315.545,274.048,282.901
0.136,10.377,4.373,4.373,315.650,274.281,283.192
0.137,10.768,4.359,4.359,315.759,274.506,283.493
0.139,11.156,4.340,4.340,315.874,274.715,283.799
0.140,11.533,4.315,4.315,315.993,274.901,284.105
0.142,11.894,4.282,4.282,316.116,275.055,284.406
0.143,12.232,4.240,4.240,316.244,275.170,284.697
0.144,12.547,4.194,4.194,316.376,275.242,284.975
0.146,12.844,4.148,4.148,316.509,275.275,285.238
0.147,13.127,4.106,4.106,316.644,275.274,285.486
0.149,13.398,4.071,4.071,316.778,275.245,285.720
0.150,13.658,4.048,4.048,316.910,275.193,285.939
0.152,13.908,4.042,4.042,317.038,275.124,286.142
0.153,14.147,4.055,4.055,317.160,275.044,286.330
0.155,14.371,4.082,4.082,317.276,274.958,286.502
0.156,14.580,4.120,4.120,317.384,274.871,286.658
0.157,14.769,4.164,4.164,317.482,274.790,286.798
0.159,14.935,4.209,4.209,317.569,274.719,286.921
0.160,15.078,4.250,4.250,317.643,274.663,287.029
0.162,15.199,4.284,4.284,317.707,274.618,287.122
0.163,15.306,4.306,4.306,317.763,274.582,287.206
0.165,15.402,4.319,4.319,317.814,274.551,287.281
0.166,15.493,4.327,4.327,317.861,274.519,287.352
0.167,15.583,4.331,4.331,317.907,274.485,287.421
0.169,15.677,4.335,4.335,317.954,274.443,287.491
0.170,15.781,4.343,4.343,318.005,274.391,287.565
0.172,15.901,4.357,4.357,318.062,274.324,287.647
0.173,16.042,4.380,4.380,318.128,274.239,287.738
0.175,16.211,4.413,4.413,318.204,274.131,287.843
0.176,16.410,4.455,4.456,318.292,273.998,287.962
0.177,16.636,4.507,4.507,318.391,273.845,288.095
0.179,16.881,4.567,4.567,318.499,273.675,288.236
0.180,17.140,4.636,4.636,318.612,273.494,288.384
0.182,17.406,4.713,4.713,318.729,273.309,288.533
0.183,17.672,4.798,4.798,318.847,273.123,288.681
0.185,17.930,4.888,4.888,318.964,272.942,288.825
0.186,18.176,4.978,4.978,319.078,272.772,288.960
0.187,18.400,5.065,5.064,319.185,272.617,289.083
0.189,18.598,5.145,5.144,319.284,272.483,289.191
0.190,18.763,5.213,5.213,319.372,272.376,289.280
0.192,18.890,5.266,5.266,319.447,272.299,289.347
0.193,18.982,5.300,5.301,319.510,272.251,289.394
0.195,19.048,5.318,5.320,319.564,272.228,289.425
0.196,19.097,5.323,5.326,319.609,272.226,289.443
0.197,19.139,5.320,5.324,319.648,272.240,289.451
0.199,19.183,5.312,5.316,319.682,272.267,289.454
0.200,19.231,5.304,5.307,319.714,272.302,289.455
0.202,19.282,5.300,5.301,319.746,272.342,289.457
0.203,19.335,5.303,5.300,319.779,272.383,289.464
0.205,19.389,5.313,5.306,319.816,272.420,289.479
0.206,19.446,5.329,5.317,319.857,272.449,289.506
0.207,19.513,5.348,5.334,319.906,272.467,289.548
0.209,19.593,5.368,5.354,319.961,272.472,289.606
0.210,19.687,5.388,5.378,320.020,272.466,289.679
0.212,19.795,5.407,5.404,320.081,272.448,289.767
0.213,19.917,5.421,5.432,320.143,272.420,289.867
0.215,20.051,5.432,5.461,320.203,272.380,289.981
0.216,20.197,5.441,5.492,320.260,272.331,290.106
0.217,20.354,5.449,5.523,320.311,272.272,290.243
0.219,20.522,5.456,5.556,320.355,272.204,290.390
0.220,20.700,5.464,5.590,320.389,272.128,290.546
0.222,20.888,5.475,5.625,320.413,272.043,290.712
0.223,21.085,5.489,5.660,320.423,271.950,290.886
0.225,21.290,5.507,5.696,320.421,271.851,291.065
0.226,21.501,5.530,5.732,320.408,271.748,291.249
0.227,21.715,5.558,5.769,320.386,271.641,291.432
0.229,21.928,5.592,5.805,320.356,271.532,291.614
0.230,22.138,5.632,5.842,320.320,271.423,291.790
0.232,22.342,5.679,5.878,320.281,271.317,291.959
0.233,22.535,5.734,5.913,320.238,271.213,292.117
0.235,22.716,5.795,5.948,320.195,271.115,292.262
0.236,22.879,5.859,5.982,320.153,271.023,292.390
0.237,23.023,5.923,6.014,320.114,270.940,292.500
0.239,23.143,5.984,6.043,320.079,270.867,292.589
0.240,23.241,6.039,6.070,320.047,270.803,292.657
0.242,23.323,6.085,6.093,320.018,270.748,292.709
0.243,23.392,6.119,6.112,319.990,270.699,292.750
0.245,23.454,6.142,6.129,319.960,270.656,292.782
0.246,23.513,6.155,6.143,319.927,270.616,292.811
0.247,23.575,6.161,6.156,319.889,270.578,292.841
0.249,23.643,6.163,6.169,319.844,270.540,292.875
0.250,23.722,6.164,6.185,319.790,270.501,292.919
0.252,23.817,6.166,6.203,319.727,270.460,292.976
0.253,23.933,6.171,6.225,319.651,270.414,293.050
0.255,24.074,6.181,6.251,319.561,270.362,293.146
0.256,24.241,6.196,6.280,319.458,270.305,293.264
0.258,24.428,6.213,6.310,319.345,270.243,293.399
0.259,24.630,6.234,6.339,319.224,270.178,293.548
0.260,24.840,6.256,6.366,319.100,270.112,293.704
0.262,25.054,6.279,6.389,318.975,270.046,293.864
0.263,25.265,6.304,6.407,318.852,269.982,294.024
0.265,25.469,6.328,6.420,318.735,269.921,294.179
0.266,25.659,6.352,6.429,318.626,269.866,294.325
0.268,25.829,6.375,6.434,318.530,269.816,294.456
0.269,25.974,6.396,6.437,318.449,269.775,294.569
0.270,26.089,6.416,6.440,318.385,269.743,294.659
0.272,26.171,6.435,6.442,318.341,269.720,294.725
0.273,26.225,6.450,6.447,318.314,269.707,294.769
0.275,26.255,6.463,6.453,318.302,269.700,294.796
0.276,26.266,6.473,6.460,318.302,269.699,294.807
0.278,26.277,6.481,6.467,318.312,269.702,294.805
0.279,26.298,6.485,6.473,318.330,269.707,294.795
0.280,26.328,6.486,6.478,318.354,269.714,294.779
0.282,26.362,6.484,6.481,318.381,269.721,294.761
0.283,26.396,6.479,6.480,318.410,269.726,294.742
0.285,26.427,6.470,6.476,318.437,269.728,294.727
0.286,26.452,6.459,6.468,318.461,269.725,294.719
0.288,26.473,6.444,6.457,318.480,269.717,294.719
0.289,26.495,6.426,6.444,318.495,269.704,294.728
0.290,26.523,6.406,6.427,318.507,269.686,294.745
0.292,26.558,6.383,6.409,318.517,269.664,294.770
0.293,26.601,6.358,6.388,318.525,269.637,294.803
0.295,26.652,6.330,6.366,318.533,269.607,294.844
0.296,26.712,6.300,6.341,318.540,269.572,294.892
0.298,26.779,6.267,6.314,318.548,269.535,294.947
0.299,26.854,6.231,6.284,318.558,269.495,295.010
0.300,26.936,6.193,6.250,318.571,269.452,295.079
0.302,27.026,6.152,6.212,318.586,269.407,295.155
0.303,27.123,6.107,6.171,318.606,269.359,295.237
0.305,27.224,6.060,6.125,318.628,269.311,295.323
0.306,27.329,6.012,6.077,318.652,269.262,295.412
0.308,27.435,5.963,6.028,318.678,269.213,295.503
0.309,27.540,5.916,5.979,318.703,269.164,295.593
0.310,27.643,5.872,5.933,318.727,269.117,295.681
0.312,27.741,5.832,5.890,318.750,269.072,295.765
0.313,27.833,5.799,5.852,318.770,269.029,295.844
0.315,27.917,5.771,5.820,318.786,268.990,295.916
0.316,27.991,5.749,5.793,318.798,268.954,295.979
0.318,28.053,5.731,5.771,318.804,268.923,296.032
0.319,28.103,5.714,5.753,318.804,268.896,296.075
0.320,28.146,5.697,5.738,318.799,268.871,296.110
0.322,28.188,5.678,5.724,318.790,268.844,296.141
0.323,28.234,5.655,5.712,318.779,268.813,296.172
0.325,28.288,5.628,5.699,318.767,268.773,296.208
0.326,28.356,5.594,5.683,318.754,268.724,296.252
0.328,28.442,5.552,5.660,318.742,268.660,296.309
0.329,28.551,5.502,5.629,318.732,268.579,296.381
0.330,28.688,5.441,5.584,318.726,268.478,296.473
0.332,28.858,5.370,5.524,318.725,268.354,296.590
0.333,29.066,5.286,5.446,318.730,268.204,296.734
0.335,29.316,5.189,5.347,318.741,268.025,296.908
0.336,29.603,5.085,5.233,318.759,267.821,297.110
0.338,29.922,4.978,5.113,318.784,267.597,297.334
0.339,30.264,4.874,4.992,318.816,267.356,297.576
0.340,30.626,4.778,4.879,318.853,267.104,297.831
0.342,30.999,4.697,4.781,318.897,266.844,298.096
0.343,31.379,4.635,4.704,318.946,266.580,298.365
0.345,31.758,4.597,4.656,319.001,266.319,298.633
0.346,32.130,4.582,4.634,319.062,266.063,298.897
0.348,32.490,4.585,4.634,319.127,265.817,299.151
0.349,32.830,4.603,4.653,319.197,265.585,299.392
0.351,33.147,4.633,4.687,319.272,265.372,299.614
0.352,33.440,4.672,4.732,319.350,265.178,299.818
0.353,33.710,4.715,4.783,319.431,265.001,300.005
0.355,33.957,4.759,4.839,319.515,264.841,300.174
0.356,34.184,4.804,4.895,319.600,264.697,300.328
0.358,34.392,4.849,4.952,319.685,264.569,300.467
0.359,34.581,4.892,5.006,319.770,264.454,300.591
0.361,34.753,4.933,5.057,319.853,264.353,300.702
0.362,34.908,4.971,5.103,319.935,264.265,300.800
0.363,35.047,5.006,5.142,320.013,264.189,300.887
0.365,35.171,5.037,5.174,320.088,264.123,300.962
0.366,35.281,5.064,5.198,320.158,264.068,301.026
0.368,35.378,5.087,5.216,320.223,264.022,301.081
0.369,35.462,5.106,5.229,320.282,263.984,301.127
0.371,35.535,5.121,5.239,320.336,263.954,301.165
0.372,35.597,5.132,5.247,320.385,263.931,301.195
0.373,35.648,5.140,5.254,320.427,263.913,301.219
0.375,35.690,5.145,5.262,320.463,263.901,301.237
0.376,35.723,5.148,5.271,320.492,263.892,301.249
0.378,35.748,5.148,5.280,320.515,263.887,301.257
0.379,35.764,5.147,5.289,320.530,263.884,301.261
0.381,35.773,5.146,5.296,320.539,263.882,301.262
0.382,35.774,5.146,5.302,320.540,263.881,301.261
0.383,35.780,5.146,5.305,320.535,263.881,301.259
0.385,35.789,5.148,5.306,320.527,263.880,301.256
0.386,35.798,5.152,5.305,320.518,263.879,301.254
0.388,35.806,5.156,5.303,320.510,263.877,301.253
0.389,35.811,5.161,5.299,320.507,263.874,301.256
0.391,35.820,5.166,5.296,320.510,263.869,301.262
0.392,35.837,5.171,5.295,320.522,263.863,301.274
0.393,35.868,5.173,5.295,320.546,263.854,301.291
0.395,35.914,5.174,5.298,320.583,263.843,301.316
0.396,35.979,5.174,5.304,320.637,263.829,301.348
0.398,36.064,5.173,5.313,320.710,263.813,301.390
0.399,36.169,5.173,5.325,320.800,263.793,301.440
0.401,36.292,5.174,5.339,320.907,263.772,301.497
0.402,36.428,5.178,5.356,321.026,263.750,301.558
0.403,36.575,5.186,5.375,321.156,263.728,301.623
0.405,36.729,5.199,5.396,321.294,263.708,301.689
0.406,36.887,5.216,5.419,321.436,263.689,301.755
0.408,37.046,5.236,5.441,321.582,263.673,301.818
0.409,37.204,5.257,5.462,321.727,263.661,301.878
0.411,37.357,5.276,5.479,321.870,263.654,301.932
0.412,37.502,5.293,5.491,322.008,263.653,301.978
0.413,37.637,5.305,5.497,322.138,263.658,302.015
0.415,37.762,5.311,5.495,322.259,263.669,302.042
0.416,37.878,5.310,5.486,322.372,263.687,302.061
0.418,37.986,5.305,5.470,322.477,263.709,302.072
0.419,38.087,5.297,5.450,322.575,263.736,302.077
0.421,38.183,5.288,5.428,322.666,263.766,302.076
0.422,38.275,5.279,5.405,322.751,263.798,302.070
0.423,38.361,5.272,5.383,322.830,263.833,302.061
0.425,38.444,5.269,5.363,322.904,263.868,302.049
0.426,38.523,5.270,5.348,322.973,263.903,302.035
0.428,38.598,5.274,5.335,323.038,263.937,302.021
0.429,38.668,5.280,5.324,323.099,263.970,302.007
0.431,38.735,5.286,5.315,323.157,264.001,301.994
0.432,38.798,5.291,5.307,323.212,264.029,301.981
0.433,38.858,5.294,5.299,323.264,264.057,301.970
0.435,38.915,5.294,5.291,323.313,264.082,301.959
0.436,38.968,5.289,5.282,323.360,264.106,301.949
0.438,39.019,5.282,5.273,323.404,264.129,301.940
0.439,39.067,5.272,5.264,323.447,264.151,301.932
0.441,39.114,5.261,5.255,323.488,264.172,301.924
0.442,39.158,5.249,5.245,323.527,264.191,301.917
0.443,39.201,5.237,5.236,323.565,264.210,301.910
0.445,39.243,5.226,5.226,323.601,264.229,301.904
0.446,39.283,5.216,5.217,323.637,264.246,301.898
0.448,39.321,5.207,5.209,323.671,264.263,301.893
0.449,39.356,5.201,5.203,323.702,264.279,301.888
0.451,39.387,5.196,5.197,323.729,264.293,301.883
0.452,39.415,5.193,5.194,323.753,264.306,301.879
0.454,39.437,5.193,5.194,323.772,264.317,301.874
0.455,39.454,5.196,5.196,323.786,264.325,301.870
0.456,39.464,5.201,5.201,323.793,264.331,301.866
0.458,39.470,5.208,5.208,323.794,264.334,301.861
0.459,39.478,5.216,5.217,323.787,264.335,301.857
0.461,39.494,5.225,5.227,323.773,264.332,301.852
0.462,39.517,5.235,5.237,323.751,264.325,301.847
0.464,39.543,5.243,5.246,323.726,264.318,301.842
0.465,39.568,5.250,5.253,323.704,264.309,301.835
0.466,39.586,5.255,5.258,323.690,264.302,301.827
0.468,39.597,5.257,5.260,323.688,264.297,301.817
0.469,39.618,5.254,5.256,323.704,264.295,301.804
0.471,39.659,5.244,5.246,323.743,264.299,301.790
0.472,39.729,5.227,5.228,323.810,264.308,301.772
0.474,39.832,5.201,5.201,323.909,264.326,301.750
0.475,39.974,5.163,5.163,324.046,264.353,301.725
0.476,40.160,5.116,5.115,324.226,264.390,301.696
0.478,40.392,5.061,5.061,324.451,264.438,301.663
0.479,40.663,5.005,5.005,324.713,264.495,301.626
0.481,40.963,4.951,4.951,325.003,264.560,301.587
0.482,41.283,4.905,4.905,325.313,264.629,301.547
0.484,41.614,4.870,4.870,325.634,264.701,301.506
0.485,41.947,4.852,4.852,325.956,264.773,301.465
0.486,42.273,4.852,4.852,326.272,264.843,301.426
0.488,42.583,4.868,4.868,326.572,264.910,301.389
0.489,42.868,4.894,4.894,326.848,264.971,301.355
0.491,43.118,4.928,4.928,327.091,265.024,301.326
0.492,43.324,4.963,4.963,327.292,265.066,301.301
0.494,43.481,4.995,4.995,327.445,265.096,301.283
0.495,43.592,5.020,5.020,327.553,265.116,301.270
0.496,43.663,5.035,5.035,327.623,265.127,301.261
0.498,43.700,5.041,5.041,327.659,265.130,301.257
0.499,43.710,5.039,5.039,327.668,265.127,301.255
0.501,43.724,5.033,5.033,327.656,265.119,301.256
0.502,43.755,5.023,5.024,327.627,265.109,301.259
0.504,43.796,5.014,5.014,327.588,265.097,301.262
0.505,43.842,5.006,5.006,327.544,265.086,301.266
0.506,43.886,5.001,5.001,327.501,265.076,301.269
0.508,43.923,5.000,4.999,327.464,265.070,301.271
0.509,43.948,5.001,5.000,327.439,265.069,301.271
0.511,43.962,5.004,5.004,327.425,265.071,301.269
0.512,43.970,5.009,5.008,327.421,265.077,301.266
0.514,43.980,5.014,5.014,327.426,265.084,301.261
0.515,43.996,5.019,5.019,327.439,265.093,301.256
0.516,44.017,5.024,5.024,327.458,265.101,301.250
0.518,44.043,5.028,5.029,327.482,265.108,301.244
0.519,44.072,5.031,5.033,327.510,265.112,301.237
0.521,44.103,5.034,5.036,327.540,265.114,301.231
0.522,44.136,5.037,5.039,327.572,265.110,301.225
0.524,44.169,5.040,5.041,327.604,265.102,301.219
0.525,44.204,5.043,5.043,327.635,265.087,301.215
0.526,44.242,5.045,5.043,327.666,265.065,301.210
0.528,44.286,5.047,5.042,327.700,265.038,301.202
0.529,44.337,5.045,5.038,327.737,265.006,301.190
0.531,44.396,5.038,5.030,327.781,264.970,301.172
0.532,44.467,5.025,5.016,327.833,264.930,301.146
0.534,44.551,5.002,4.996,327.896,264.886,301.110
0.535,44.651,4.969,4.967,327.970,264.840,301.062
0.536,44.769,4.923,4.930,328.058,264.792,301.000
0.538,44.908,4.868,4.885,328.162,264.742,300.923
0.539,45.070,4.806,4.835,328.284,264.692,300.828
0.541,45.259,4.741,4.782,328.426,264.641,300.715
0.542,45.470,4.678,4.728,328.584,264.590,300.584
0.544,45.697,4.619,4.676,328.753,264.541,300.441
0.545,45.934,4.568,4.629,328.929,264.492,300.289
0.546,46.175,4.528,4.587,329.106,264.446,300.132
0.548,46.414,4.500,4.553,329.280,264.402,299.974
0.549,46.645,4.481,4.526,329.445,264.362,299.819
0.551,46.860,4.468,4.507,329.596,264.325,299.670
0.552,47.054,4.459,4.496,329.729,264.293,299.532
0.554,47.221,4.453,4.493,329.838,264.266,299.408
0.555,47.355,4.445,4.499,329.918,264.244,299.303
0.557,47.452,4.436,4.513,329.965,264.228,299.220
0.558,47.518,4.423,4.533,329.983,264.218,299.157
0.559,47.564,4.407,4.556,329.980,264.212,299.111
0.561,47.601,4.390,4.578,329.964,264.210,299.078
0.562,47.632,4.371,4.595,329.946,264.210,299.053
0.564,47.656,4.351,4.603,329.933,264.211,299.033
0.565,47.677,4.331,4.600,329.934,264.213,299.013
0.567,47.711,4.312,4.580,329.958,264.215,298.988
0.568,47.775,4.294,4.548,330.014,264.215,298.956
0.569,47.881,4.281,4.508,330.110,264.212,298.911
0.571,48.039,4.276,4.469,330.255,264.205,298.851
0.572,48.258,4.280,4.436,330.458,264.193,298.769
0.574,48.536,4.297,4.416,330.717,264.177,298.669
0.575,48.862,4.328,4.416,331.021,264.157,298.555
0.577,49.224,4.377,4.443,331.361,264.133,298.431
0.578,49.612,4.441,4.494,331.727,264.107,298.304
0.579,50.015,4.516,4.563,332.109,264.079,298.179
0.581,50.421,4.596,4.642,332.496,264.050,298.060
0.582,50.819,4.675,4.723,332.879,264.020,297.954
0.584,51.199,4.748,4.800,333.247,263.990,297.864
