"T","Distance","Radius","FreeRadius","X","Y","Z"
0.000,0.000,2.785,2.785,280.382,241.434,260.259
0.001,0.247,2.903,2.903,280.205,241.299,260.367
0.002,0.491,3.020,3.020,280.030,241.165,260.472
0.004,0.732,3.138,3.138,279.857,241.031,260.574
0.005,0.968,3.254,3.254,279.689,240.898,260.670
0.006,1.195,3.370,3.370,279.525,240.766,260.759
0.007,1.414,3.486,3.486,279.369,240.636,260.838
0.008,1.622,3.600,3.600,279.220,240.506,260.905
0.010,1.819,3.713,3.713,279.081,240.379,260.959
0.011,2.003,3.824,3.824,278.953,240.253,260.998
0.012,2.174,3.933,3.933,278.836,240.130,261.020
0.013,2.333,4.040,4.040,278.732,240.009,261.024
0.014,2.482,4.142,4.142,278.641,239.891,261.011
0.015,2.624,4.239,4.239,278.561,239.778,260.984
0.017,2.758,4.331,4.331,278.491,239.670,260.946
0.018,2.887,4.415,4.415,278.430,239.567,260.898
0.019,3.009,4.491,4.491,278.378,239.471,260.843
0.020,3.126,4.558,4.558,278.333,239.382,260.782
0.021,3.235,4.615,4.615,278.295,239.302,260.719
0.023,3.336,4.663,4.663,278.262,239.230,260.656
0.024,3.427,4.702,4.702,278.235,239.169,260.594
0.025,3.509,4.733,4.733,278.211,239.117,260.535
0.026,3.581,4.756,4.756,278.190,239.074,260.481
0.027,3.644,4.772,4.772,278.173,239.037,260.433
0.029,3.698,4.781,4.781,278.159,239.006,260.391
0.030,3.744,4.785,4.785,278.147,238.978,260.357
0.031,3.782,4.783,4.783,278.138,238.953,260.331
0.032,3.813,4.776,4.776,278.129,238.928,260.314
0.033,3.840,4.765,4.765,278.123,238.902,260.308
0.035,3.869,4.752,4.752,278.117,238.874,260.313
0.036,3.906,4.737,4.737,278.112,238.842,260.330
0.037,3.953,4.722,4.722,278.108,238.805,260.359
0.038,4.009,4.706,4.706,278.103,238.765,260.398
0.039,4.071,4.693,4.693,278.100,238.723,260.443
0.041,4.136,4.681,4.681,278.098,238.680,260.493
0.042,4.203,4.673,4.673,278.096,238.639,260.544
0.043,4.267,4.667,4.667,278.095,238.600,260.596
0.044,4.327,4.664,4.664,278.096,238.565,260.644
0.045,4.379,4.662,4.662,278.097,238.534,260.686
0.046,4.421,4.662,4.662,278.101,238.510,260.721
0.048,4.451,4.664,4.664,278.105,238.494,260.745
0.049,4.468,4.665,4.665,278.111,238.485,260.759
0.050,4.477,4.668,4.668,278.116,238.481,260.765
0.051,4.482,4.670,4.670,278.121,238.481,260.766
0.052,4.485,4.671,4.671,278.123,238.481,260.765
0.054,4.486,4.673,4.673,278.123,238.481,260.763
0.055,4.492,4.674,4.674,278.118,238.477,260.765
0.056,4.507,4.674,4.674,278.108,238.469,260.771
0.057,4.534,4.675,4.675,278.092,238.453,260.786
0.058,4.576,4.675,4.675,278.069,238.428,260.811
0.060,4.638,4.675,4.675,278.037,238.392,260.850
0.061,4.716,4.675,4.675,277.999,238.345,260.900
0.062,4.809,4.674,4.674,277.956,238.290,260.960
0.063,4.911,4.673,4.673,277.909,238.228,261.027
0.064,5.018,4.672,4.672,277.861,238.163,261.097
0.066,5.127,4.669,4.669,277.815,238.095,261.168
0.067,5.232,4.667,4.667,277.772,238.028,261.237
0.068,5.331,4.663,4.663,277.734,237.963,261.302
0.069,5.420,4.659,4.659,277.703,237.903,261.359
0.070,5.493,4.653,4.653,277.682,237.850,261.405
0.072,5.550,4.647,4.647,277.672,237.806,261.439
0.073,5.592,4.639,4.639,277.673,237.769,261.460
0.074,5.627,4.630,4.630,277.682,237.737,261.470
0.075,5.661,4.620,4.620,277.698,237.707,261.471
0.076,5.698,4.607,4.607,277.720,237.677,261.465
0.077,5.741,4.593,4.593,277.744,237.644,261.453
0.079,5.790,4.576,4.576,277.770,237.606,261.438
0.080,5.846,4.558,4.558,277.796,237.559,261.421
0.081,5.911,4.536,4.536,277.820,237.501,261.403
0.082,5.986,4.513,4.513,277.839,237.430,261.387
0.083,6.075,4.487,4.487,277.853,237.344,261.375
0.085,6.175,4.461,4.461,277.862,237.244,261.365
0.086,6.285,4.434,4.434,277.868,237.135,261.358
0.087,6.400,4.408,4.408,277.871,237.020,261.354
0.088,6.517,4.383,4.383,277.873,236.903,261.351
0.089,6.632,4.360,4.360,277.876,236.787,261.351
0.091,6.743,4.339,4.339,277.879,236.677,261.351
0.092,6.845,4.321,4.321,277.885,236.575,261.353
0.093,6.935,4.307,4.307,277.895,236.486,261.355
0.094,7.010,4.295,4.295,277.911,236.412,261.357
0.095,7.070,4.287,4.287,277.931,236.356,261.360
0.097,7.120,4.281,4.281,277.956,236.312,261.363
0.098,7.166,4.277,4.277,277.982,236.274,261.366
0.099,7.213,4.276,4.276,278.007,236.235,261.371
0.100,7.265,4.276,4.276,278.028,236.188,261.379
0.101,7.330,4.277,4.277,278.044,236.127,261.388
0.103,7.414,4.280,4.280,278.051,236.043,261.401
0.104,7.527,4.283,4.283,278.047,235.932,261.417
0.105,7.676,4.286,4.286,278.030,235.785,261.437
0.106,7.869,4.288,4.288,277.998,235.596,261.462
0.107,8.110,4.289,4.289,277.948,235.363,261.492
0.108,8.389,4.287,4.287,277.886,235.092,261.525
0.110,8.699,4.282,4.282,277.814,234.794,261.560
0.111,9.029,4.272,4.272,277.735,234.475,261.597
0.112,9.369,4.259,4.259,277.655,234.146,261.633
0.113,9.711,4.242,4.242,277.576,233.815,261.667
0.114,10.045,4.224,4.224,277.503,233.491,261.699
0.116,10.360,4.205,4.205,277.439,233.183,261.727
0.117,10.649,4.187,4.187,277.387,232.900,261.749
0.118,10.902,4.173,4.173,277.352,232.651,261.765
0.119,11.114,4.164,4.164,277.335,232.439,261.773
0.120,11.293,4.161,4.161,277.331,232.260,261.776
0.122,11.442,4.165,4.165,277.336,232.111,261.774
0.123,11.568,4.179,4.179,277.347,231.986,261.768
0.124,11.675,4.200,4.200,277.360,231.880,261.760
0.125,11.767,4.227,4.227,277.369,231.789,261.751
0.126,11.849,4.259,4.259,277.370,231.708,261.741
0.128,11.926,4.295,4.295,277.361,231.632,261.733
0.129,12.006,4.332,4.332,277.336,231.556,261.727
0.130,12.098,4.370,4.370,277.291,231.476,261.725
0.131,12.207,4.408,4.408,277.225,231.388,261.726
0.132,12.334,4.445,4.445,277.140,231.294,261.729
0.133,12.477,4.481,4.481,277.039,231.193,261.734
0.135,12.634,4.520,4.520,276.924,231.086,261.738
0.136,12.804,4.563,4.563,276.797,230.973,261.741
0.137,12.984,4.614,4.614,276.662,230.854,261.742
0.138,13.173,4.674,4.674,276.520,230.729,261.738
0.139,13.369,4.746,4.746,276.374,230.599,261.729
0.141,13.570,4.832,4.832,276.227,230.463,261.714
0.142,13.774,4.936,4.936,276.080,230.323,261.691
0.143,13.981,5.055,5.055,275.936,230.178,261.661
0.144,14.188,5.185,5.185,275.794,230.032,261.622
0.145,14.395,5.320,5.320,275.657,229.884,261.577
0.147,14.600,5.455,5.455,275.525,229.736,261.526
0.148,14.801,5.584,5.584,275.398,229.591,261.469
0.149,14.998,5.701,5.701,275.277,229.449,261.406
0.150,15.188,5.802,5.802,275.163,229.312,261.339
0.151,15.370,5.879,5.879,275.058,229.181,261.267
0.153,15.544,5.929,5.929,274.961,229.058,261.192
0.154,15.707,5.954,5.954,274.874,228.945,261.114
0.155,15.859,5.958,5.958,274.796,228.842,261.034
0.156,15.999,5.945,5.945,274.729,228.748,260.954
0.157,16.127,5.919,5.919,274.671,228.666,260.876
0.159,16.241,5.884,5.884,274.624,228.594,260.800
0.160,16.341,5.846,5.846,274.587,228.533,260.730
0.161,16.427,5.807,5.807,274.560,228.484,260.665
0.162,16.496,5.772,5.772,274.543,228.446,260.609
0.163,16.550,5.744,5.744,274.537,228.420,260.563
0.164,16.587,5.720,5.720,274.542,228.406,260.528
0.166,16.614,5.702,5.702,274.556,228.404,260.506
0.167,16.640,5.687,5.687,274.579,228.411,260.496
0.168,16.669,5.675,5.675,274.605,228.424,260.494
0.169,16.699,5.665,5.665,274.631,228.438,260.498
0.170,16.726,5.657,5.657,274.653,228.450,260.506
0.172,16.744,5.648,5.648,274.668,228.457,260.515
0.173,16.752,5.640,5.640,274.671,228.454,260.522
0.174,16.773,5.631,5.631,274.659,228.438,260.525
0.175,16.819,5.622,5.622,274.628,228.404,260.522
0.176,16.896,5.614,5.614,274.574,228.350,260.509
0.178,17.010,5.606,5.606,274.494,228.273,260.485
0.179,17.154,5.600,5.600,274.393,228.174,260.452
0.180,17.324,5.594,5.594,274.276,228.060,260.411
0.181,17.510,5.590,5.590,274.147,227.934,260.364
0.182,17.706,5.588,5.588,274.013,227.800,260.314
0.184,17.904,5.588,5.588,273.878,227.664,260.264
0.185,18.098,5.588,5.588,273.748,227.529,260.214
0.186,18.279,5.590,5.590,273.628,227.401,260.168
0.187,18.442,5.591,5.591,273.523,227.283,260.128
0.188,18.578,5.591,5.591,273.440,227.180,260.096
0.190,18.683,5.589,5.589,273.381,227.095,260.074
0.191,18.761,5.586,5.586,273.344,227.028,260.060
0.192,18.817,5.580,5.580,273.327,226.976,260.053
0.193,18.855,5.571,5.571,273.324,226.938,260.052
0.194,18.883,5.559,5.559,273.334,226.912,260.056
0.195,18.909,5.545,5.545,273.353,226.895,260.063
0.197,18.936,5.531,5.531,273.376,226.887,260.072
0.198,18.963,5.516,5.516,273.402,226.885,260.082
0.199,18.989,5.502,5.502,273.426,226.888,260.091
0.200,19.010,5.489,5.489,273.446,226.894,260.097
0.201,19.025,5.479,5.479,273.458,226.900,260.101
0.203,19.033,5.472,5.472,273.464,226.905,260.103
0.204,19.036,5.468,5.468,273.466,226.908,260.102
0.205,19.040,5.466,5.466,273.463,226.905,260.101
0.206,19.051,5.464,5.464,273.457,226.896,260.099
0.207,19.071,5.462,5.462,273.450,226.878,260.097
0.209,19.101,5.458,5.458,273.442,226.849,260.096
0.210,19.143,5.451,5.451,273.435,226.807,260.096
0.211,19.200,5.440,5.440,273.429,226.751,260.099
0.212,19.273,5.424,5.424,273.426,226.678,260.104
0.213,19.363,5.402,5.401,273.427,226.588,260.112
0.215,19.469,5.374,5.373,273.430,226.483,260.122
0.216,19.589,5.342,5.341,273.436,226.364,260.134
0.217,19.721,5.305,5.305,273.444,226.232,260.146
0.218,19.863,5.266,5.266,273.454,226.091,260.159
0.219,20.014,5.225,5.225,273.465,225.941,260.171
0.221,20.172,5.183,5.183,273.477,225.785,260.182
0.222,20.334,5.141,5.140,273.490,225.623,260.190
0.223,20.499,5.099,5.099,273.502,225.459,260.196
0.224,20.665,5.058,5.059,273.515,225.293,260.198
0.225,20.833,5.020,5.022,273.527,225.126,260.197
0.226,21.002,4.984,4.987,273.538,224.957,260.191
0.228,21.175,4.952,4.956,273.550,224.784,260.181
0.229,21.353,4.925,4.928,273.562,224.608,260.167
0.230,21.537,4.903,4.906,273.574,224.425,260.148
0.231,21.728,4.886,4.888,273.586,224.235,260.125
0.232,21.928,4.877,4.877,273.599,224.038,260.097
0.234,22.138,4.874,4.871,273.613,223.831,260.064
0.235,22.360,4.878,4.871,273.628,223.613,260.026
0.236,22.593,4.885,4.876,273.644,223.384,259.983
0.237,22.837,4.895,4.884,273.661,223.146,259.935
0.238,23.085,4.907,4.894,273.679,222.903,259.885
0.240,23.333,4.917,4.906,273.696,222.662,259.833
0.241,23.576,4.926,4.919,273.714,222.425,259.781
0.242,23.808,4.931,4.931,273.730,222.199,259.730
0.243,24.024,4.931,4.941,273.746,221.989,259.682
0.244,24.219,4.926,4.950,273.760,221.800,259.638
0.246,24.388,4.917,4.957,273.771,221.635,259.599
0.247,24.526,4.907,4.962,273.781,221.502,259.567
0.248,24.628,4.896,4.966,273.787,221.403,259.544
0.249,24.695,4.887,4.968,273.790,221.337,259.529
0.250,24.733,4.880,4.969,273.791,221.300,259.521
0.251,24.748,4.877,4.969,273.788,221.286,259.519
0.253,24.757,4.881,4.968,273.781,221.291,259.523
0.254,24.780,4.890,4.965,273.772,221.310,259.532
0.255,24.813,4.904,4.961,273.758,221.338,259.545
0.256,24.852,4.919,4.954,273.742,221.370,259.561
0.257,24.893,4.934,4.945,273.722,221.401,259.578
0.259,24.933,4.946,4.932,273.698,221.426,259.598
0.260,24.970,4.952,4.916,273.670,221.441,259.617
0.261,25.006,4.951,4.895,273.639,221.445,259.637
0.262,25.046,4.939,4.869,273.604,221.438,259.654
0.263,25.091,4.914,4.837,273.566,221.420,259.668
0.265,25.142,4.878,4.801,273.524,221.392,259.679
0.266,25.202,4.832,4.761,273.479,221.354,259.684
0.267,25.270,4.781,4.719,273.430,221.306,259.683
0.268,25.348,4.726,4.676,273.378,221.248,259.675
0.269,25.436,4.671,4.635,273.323,221.181,259.658
0.271,25.536,4.618,4.596,273.264,221.105,259.632
0.272,25.647,4.570,4.561,273.203,221.021,259.595
0.273,25.768,4.530,4.532,273.138,220.929,259.550
0.274,25.896,4.500,4.508,273.071,220.833,259.499
0.275,26.028,4.477,4.489,273.002,220.734,259.445
0.277,26.162,4.460,4.473,272.930,220.635,259.390
0.278,26.296,4.445,4.457,272.857,220.537,259.337
0.279,26.426,4.432,4.441,272.782,220.442,259.288
0.280,26.550,4.416,4.423,272.705,220.354,259.246
0.281,26.666,4.397,4.400,272.628,220.273,259.214
0.282,26.774,4.371,4.372,272.550,220.202,259.193
0.284,26.873,4.337,4.336,272.471,220.143,259.186
0.285,26.967,4.295,4.293,272.391,220.093,259.190
0.286,27.059,4.249,4.246,272.310,220.050,259.204
0.287,27.151,4.199,4.197,272.229,220.013,259.223
0.288,27.244,4.150,4.148,272.145,219.980,259.245
0.290,27.337,4.102,4.101,272.061,219.948,259.269
0.291,27.432,4.059,4.059,271.975,219.916,259.291
0.292,27.528,4.024,4.024,271.886,219.881,259.309
0.293,27.627,3.997,3.997,271.796,219.842,259.319
0.294,27.730,3.981,3.981,271.704,219.796,259.321
0.296,27.838,3.974,3.972,271.610,219.743,259.311
0.297,27.953,3.973,3.970,271.513,219.683,259.293
0.298,28.074,3.976,3.972,271.415,219.618,259.269
0.299,28.198,3.980,3.976,271.316,219.548,259.240
0.300,28.326,3.984,3.981,271.216,219.474,259.210
0.302,28.456,3.986,3.983,271.115,219.398,259.180
0.303,28.586,3.982,3.981,271.014,219.321,259.154
0.304,28.716,3.971,3.973,270.912,219.243,259.132
0.305,28.844,3.954,3.961,270.811,219.166,259.118
0.306,28.969,3.935,3.946,270.711,219.091,259.114
0.308,29.093,3.916,3.931,270.612,219.018,259.120
0.309,29.213,3.901,3.918,270.515,218.946,259.133
0.310,29.330,3.892,3.909,270.423,218.876,259.149
0.311,29.442,3.893,3.907,270.336,218.807,259.165
0.312,29.549,3.906,3.914,270.256,218.738,259.179
0.313,29.648,3.935,3.932,270.185,218.669,259.186
0.315,29.741,3.981,3.962,270.123,218.600,259.183
0.316,29.829,4.039,4.003,270.073,218.529,259.168
0.317,29.917,4.104,4.053,270.035,218.457,259.136
0.318,30.010,4.173,4.112,270.011,218.383,259.084
0.319,30.114,4.242,4.176,269.999,218.307,259.014
0.321,30.231,4.305,4.245,269.993,218.227,258.929
0.322,30.358,4.359,4.318,269.990,218.144,258.833
0.323,30.492,4.399,4.392,269.983,218.056,258.732
0.324,30.632,4.421,4.466,269.967,217.963,258.629
0.325,30.777,4.428,4.539,269.936,217.864,258.528
0.327,30.926,4.423,4.609,269.887,217.759,258.434
0.328,31.084,4.412,4.675,269.813,217.646,258.352
0.329,31.256,4.398,4.735,269.709,217.526,258.285
0.330,31.451,4.386,4.789,269.570,217.398,258.238
0.331,31.671,4.380,4.833,269.399,217.262,258.211
0.333,31.913,4.384,4.868,269.201,217.123,258.200
0.334,32.173,4.403,4.892,268.983,216.981,258.203
0.335,32.445,4.439,4.905,268.751,216.840,258.217
0.336,32.722,4.488,4.908,268.512,216.702,258.239
0.337,32.997,4.547,4.907,268.273,216.570,258.266
0.338,33.263,4.614,4.901,268.039,216.446,258.294
0.340,33.513,4.686,4.896,267.817,216.334,258.321
0.341,33.740,4.759,4.893,267.614,216.235,258.344
0.342,33.938,4.831,4.895,267.435,216.152,258.360
0.343,34.106,4.898,4.905,267.281,216.084,258.368
0.344,34.248,4.958,4.925,267.150,216.029,258.370
0.346,34.367,5.011,4.955,267.040,215.985,258.365
0.347,34.467,5.057,4.991,266.947,215.949,258.355
0.348,34.551,5.098,5.033,266.871,215.919,258.340
0.349,34.622,5.134,5.078,266.808,215.893,258.320
0.350,34.683,5.165,5.124,266.756,215.868,258.297
0.352,34.739,5.194,5.169,266.714,215.843,258.270
0.353,34.793,5.219,5.211,266.678,215.815,258.241
0.354,34.848,5.244,5.248,266.647,215.782,258.210
0.355,34.906,5.267,5.280,266.619,215.742,258.178
0.356,34.969,5.290,5.307,266.592,215.696,258.146
0.358,35.038,5.314,5.332,266.565,215.642,258.113
0.359,35.115,5.340,5.356,266.535,215.578,258.081
0.360,35.201,5.368,5.381,266.500,215.506,258.049
0.361,35.298,5.399,5.408,266.460,215.422,258.020
0.362,35.408,5.434,5.438,266.412,215.328,257.994
0.364,35.531,5.473,5.474,266.355,215.221,257.970
0.365,35.671,5.518,5.516,266.286,215.101,257.950
0.366,35.827,5.567,5.563,266.205,214.968,257.934
0.367,35.998,5.619,5.614,266.116,214.824,257.921
0.368,36.178,5.672,5.667,266.020,214.671,257.910
0.369,36.365,5.725,5.721,265.922,214.512,257.900
0.371,36.553,5.776,5.773,265.827,214.350,257.890
0.372,36.740,5.823,5.822,265.736,214.188,257.879
0.373,36.921,5.866,5.866,265.654,214.027,257.866
0.374,37.092,5.903,5.903,265.585,213.871,257.849
0.375,37.252,5.933,5.934,265.532,213.722,257.828
0.377,37.397,5.957,5.959,265.499,213.583,257.801
0.378,37.529,5.978,5.979,265.488,213.456,257.768
0.379,37.651,5.995,5.996,265.496,213.340,257.730
0.380,37.766,6.010,6.011,265.520,213.236,257.689
0.381,37.875,6.024,6.024,265.556,213.141,257.646
0.383,37.981,6.038,6.038,265.601,213.057,257.602
0.384,38.081,6.054,6.054,265.653,212.982,257.559
0.385,38.176,6.072,6.072,265.707,212.916,257.517
0.386,38.263,6.092,6.092,265.760,212.858,257.480
0.387,38.341,6.113,6.113,265.809,212.807,257.447
0.389,38.407,6.134,6.134,265.850,212.764,257.420
0.390,38.460,6.155,6.156,265.883,212.727,257.401
0.391,38.501,6.175,6.176,265.907,212.696,257.387
0.392,38.534,6.193,6.194,265.923,212.669,257.379
0.393,38.559,6.209,6.209,265.933,212.646,257.374
0.395,38.580,6.221,6.221,265.937,212.626,257.373
0.396,38.599,6.230,6.229,265.937,212.607,257.373
0.397,38.617,6.235,6.234,265.933,212.590,257.375
0.398,38.635,6.238,6.237,265.927,212.572,257.376
0.399,38.655,6.238,6.236,265.920,212.553,257.377
0.400,38.677,6.236,6.234,265.912,212.533,257.375
0.402,38.703,6.232,6.231,265.904,212.509,257.371
0.403,38.735,6.227,6.226,265.897,212.479,257.362
0.404,38.776,6.221,6.221,265.891,212.441,257.348
0.405,38.829,6.214,6.216,265.886,212.393,257.327
0.406,38.897,6.209,6.212,265.883,212.331,257.298
0.408,38.984,6.207,6.211,265.882,212.253,257.261
0.409,39.090,6.209,6.215,265.883,212.158,257.213
0.410,39.221,6.219,6.225,265.887,212.042,257.153
0.411,39.377,6.237,6.242,265.894,211.903,257.081
0.412,39.563,6.265,6.269,265.904,211.739,256.996
0.414,39.774,6.306,6.307,265.917,211.552,256.898
0.415,40.005,6.360,6.358,265.933,211.348,256.791
0.416,40.247,6.428,6.419,265.951,211.135,256.678
0.417,40.494,6.504,6.490,265.969,210.917,256.563
0.418,40.737,6.587,6.565,265.989,210.702,256.449
0.420,40.971,6.672,6.641,266.007,210.497,256.340
0.421,41.187,6.756,6.717,266.025,210.307,256.239
0.422,41.378,6.835,6.787,266.041,210.138,256.150
0.423,41.537,6.906,6.850,266.055,209.999,256.076
0.424,41.657,6.965,6.901,266.066,209.893,256.020
0.426,41.738,7.009,6.938,266.074,209.821,255.982
0.427,41.788,7.039,6.963,266.080,209.778,255.958
0.428,41.811,7.056,6.976,266.085,209.758,255.947
0.429,41.816,7.062,6.979,266.089,209.757,255.945
0.430,41.829,7.058,6.973,266.092,209.768,255.948
0.431,41.850,7.045,6.960,266.097,209.788,255.956
0.433,41.875,7.024,6.942,266.102,209.811,255.963
0.434,41.898,6.997,6.919,266.110,209.832,255.968
0.435,41.915,6.965,6.893,266.119,209.846,255.968
0.436,41.930,6.929,6.864,266.133,209.847,255.960
0.437,41.956,6.890,6.835,266.149,209.836,255.944
0.439,41.993,6.848,6.804,266.168,209.813,255.922
0.440,42.041,6.806,6.772,266.190,209.779,255.895
0.441,42.099,6.764,6.741,266.214,209.735,255.866
0.442,42.166,6.724,6.710,266.240,209.682,255.835
0.443,42.241,6.685,6.680,266.268,209.619,255.804
0.445,42.322,6.650,6.651,266.297,209.549,255.774
0.446,42.409,6.619,6.624,266.327,209.473,255.748
0.447,42.500,6.592,6.599,266.357,209.390,255.727
0.448,42.594,6.569,6.577,266.389,209.302,255.712
0.449,42.691,6.549,6.556,266.420,209.211,255.702
0.451,42.787,6.532,6.538,266.451,209.121,255.697
0.452,42.880,6.518,6.523,266.482,209.033,255.695
0.453,42.967,6.507,6.509,266.513,208.951,255.695
0.454,43.047,6.498,6.499,266.542,208.877,255.697
0.455,43.116,6.492,6.491,266.570,208.814,255.700
0.456,43.172,6.487,6.485,266.597,208.765,255.702
0.458,43.213,6.482,6.480,266.622,208.732,255.702
0.459,43.239,6.478,6.476,266.645,208.719,255.699
0.460,43.262,6.472,6.470,266.665,208.725,255.693
0.461,43.290,6.464,6.462,266.682,208.746,255.685
0.462,43.321,6.453,6.452,266.696,208.772,255.674
0.464,43.350,6.438,6.438,266.705,208.797,255.663
0.465,43.370,6.418,6.418,266.708,208.813,255.651
0.466,43.381,6.393,6.393,266.705,208.812,255.641
0.467,43.409,6.361,6.362,266.695,208.787,255.632
0.468,43.470,6.323,6.323,266.678,208.729,255.626
0.470,43.570,6.277,6.277,266.651,208.632,255.624
0.471,43.719,6.222,6.223,266.616,208.488,255.626
0.472,43.919,6.160,6.160,266.571,208.293,255.632
0.473,44.163,6.088,6.088,266.519,208.054,255.644
0.474,44.444,6.006,6.006,266.462,207.780,255.659
0.476,44.752,5.914,5.914,266.403,207.478,255.678
0.477,45.078,5.813,5.813,266.343,207.158,255.699
0.478,45.415,5.706,5.706,266.285,206.827,255.723
0.479,45.753,5.596,5.595,266.232,206.494,255.748
0.480,46.084,5.484,5.483,266.186,206.168,255.775
0.482,46.400,5.375,5.374,266.148,205.855,255.802
0.483,46.692,5.269,5.268,266.122,205.566,255.828
0.484,46.956,5.171,5.170,266.109,205.303,255.854
0.485,47.196,5.081,5.082,266.109,205.065,255.879
0.486,47.414,5.003,5.004,266.123,204.848,255.901
