"T","Distance","Radius","FreeRadius","X","Y","Z"
0.000,0.000,2.290,2.290,171.699,192.812,197.789
0.001,0.347,2.430,2.430,171.997,192.768,197.962
0.003,0.690,2.568,2.568,172.291,192.723,198.132
0.004,1.028,2.703,2.703,172.581,192.679,198.301
0.005,1.356,2.833,2.833,172.862,192.636,198.464
0.006,1.673,2.956,2.956,173.133,192.593,198.622
0.008,1.974,3.070,3.070,173.391,192.551,198.773
0.009,2.258,3.174,3.174,173.633,192.511,198.915
0.010,2.520,3.267,3.267,173.856,192.471,199.047
0.012,2.758,3.346,3.346,174.058,192.433,199.167
0.013,2.970,3.414,3.414,174.237,192.397,199.275
0.014,3.151,3.471,3.471,174.389,192.363,199.367
0.016,3.300,3.518,3.518,174.511,192.330,199.444
0.017,3.414,3.557,3.557,174.603,192.300,199.505
0.018,3.496,3.588,3.588,174.667,192.273,199.549
0.019,3.552,3.612,3.612,174.706,192.249,199.581
0.021,3.587,3.632,3.632,174.725,192.229,199.602
0.022,3.606,3.646,3.646,174.728,192.214,199.615
0.023,3.621,3.657,3.657,174.717,192.205,199.621
0.025,3.641,3.666,3.666,174.698,192.201,199.623
0.026,3.666,3.672,3.672,174.674,192.205,199.623
0.027,3.693,3.676,3.676,174.649,192.215,199.624
0.028,3.722,3.680,3.680,174.626,192.234,199.628
0.030,3.755,3.685,3.685,174.610,192.261,199.637
0.031,3.796,3.689,3.689,174.605,192.298,199.653
0.032,3.849,3.695,3.695,174.614,192.345,199.678
0.034,3.917,3.702,3.702,174.636,192.400,199.711
0.035,3.998,3.708,3.708,174.669,192.462,199.752
0.036,4.090,3.714,3.714,174.712,192.529,199.798
0.038,4.189,3.720,3.720,174.761,192.599,199.848
0.039,4.293,3.724,3.724,174.816,192.670,199.900
0.040,4.399,3.727,3.727,174.873,192.741,199.953
0.041,4.504,3.728,3.728,174.932,192.811,200.006
0.043,4.604,3.727,3.727,174.989,192.876,200.056
0.044,4.698,3.726,3.726,175.044,192.935,200.103
0.045,4.781,3.724,3.724,175.093,192.988,200.144
0.047,4.850,3.724,3.724,175.135,193.031,200.179
0.048,4.904,3.724,3.724,175.169,193.063,200.205
0.049,4.943,3.727,3.727,175.193,193.087,200.224
0.051,4.970,3.733,3.733,175.211,193.103,200.237
0.052,4.989,3.742,3.742,175.224,193.115,200.244
0.053,5.002,3.752,3.752,175.232,193.124,200.248
0.054,5.013,3.763,3.763,175.238,193.134,200.249
0.056,5.026,3.773,3.773,175.242,193.146,200.248
0.057,5.044,3.781,3.781,175.247,193.163,200.247
0.058,5.069,3.784,3.784,175.253,193.188,200.247
0.060,5.104,3.781,3.781,175.263,193.222,200.250
0.061,5.153,3.771,3.771,175.276,193.268,200.255
0.062,5.217,3.754,3.754,175.296,193.328,200.265
0.063,5.300,3.732,3.732,175.324,193.405,200.281
0.065,5.401,3.708,3.708,175.359,193.497,200.303
0.066,5.518,3.685,3.685,175.403,193.602,200.329
0.067,5.647,3.666,3.666,175.456,193.716,200.359
0.069,5.787,3.653,3.653,175.518,193.837,200.392
0.070,5.936,3.651,3.651,175.591,193.962,200.428
0.071,6.092,3.661,3.661,175.675,194.088,200.465
0.073,6.253,3.684,3.684,175.769,194.213,200.503
0.074,6.418,3.716,3.716,175.875,194.333,200.541
0.075,6.586,3.754,3.754,175.994,194.446,200.578
0.076,6.756,3.795,3.795,176.125,194.549,200.614
0.078,6.929,3.835,3.835,176.269,194.639,200.647
0.079,7.106,3.871,3.871,176.426,194.714,200.678
0.080,7.288,3.898,3.898,176.595,194.773,200.705
0.082,7.473,3.915,3.915,176.773,194.819,200.729
0.083,7.661,3.920,3.920,176.957,194.853,200.751
0.084,7.849,3.916,3.916,177.143,194.875,200.770
0.085,8.036,3.902,3.902,177.328,194.889,200.787
0.087,8.218,3.882,3.882,177.510,194.895,200.802
0.088,8.394,3.856,3.856,177.685,194.895,200.816
0.089,8.560,3.826,3.826,177.850,194.891,200.828
0.091,8.713,3.795,3.795,178.003,194.884,200.840
0.092,8.850,3.762,3.762,178.139,194.876,200.850
0.093,8.969,3.729,3.729,178.257,194.868,200.860
0.095,9.065,3.698,3.698,178.353,194.862,200.869
0.096,9.140,3.669,3.669,178.428,194.859,200.878
0.097,9.196,3.643,3.643,178.483,194.857,200.887
0.098,9.235,3.622,3.622,178.521,194.857,200.896
0.100,9.260,3.605,3.605,178.544,194.859,200.904
0.101,9.274,3.595,3.595,178.555,194.862,200.911
0.102,9.282,3.592,3.592,178.556,194.865,200.919
0.104,9.292,3.594,3.594,178.549,194.869,200.925
0.105,9.306,3.601,3.601,178.537,194.872,200.931
0.106,9.323,3.610,3.610,178.522,194.876,200.936
0.108,9.340,3.622,3.622,178.505,194.879,200.941
0.109,9.356,3.634,3.634,178.491,194.881,200.945
0.110,9.367,3.644,3.644,178.479,194.882,200.948
0.111,9.374,3.653,3.653,178.473,194.882,200.950
0.113,9.377,3.658,3.658,178.470,194.881,200.952
0.114,9.380,3.661,3.661,178.472,194.879,200.953
0.115,9.385,3.661,3.661,178.476,194.876,200.954
0.117,9.393,3.659,3.659,178.484,194.873,200.955
0.118,9.404,3.655,3.655,178.494,194.870,200.956
0.119,9.416,3.651,3.651,178.506,194.866,200.957
0.120,9.430,3.645,3.645,178.519,194.863,200.958
0.122,9.445,3.639,3.639,178.534,194.861,200.960
0.123,9.461,3.632,3.632,178.549,194.859,200.963
0.124,9.477,3.626,3.626,178.565,194.858,200.966
0.126,9.494,3.619,3.619,178.581,194.858,200.971
0.127,9.511,3.611,3.611,178.597,194.858,200.977
0.128,9.530,3.602,3.602,178.615,194.859,200.984
0.130,9.553,3.592,3.592,178.636,194.858,200.993
0.131,9.581,3.582,3.582,178.661,194.856,201.004
0.132,9.615,3.570,3.570,178.692,194.850,201.017
0.133,9.657,3.556,3.556,178.731,194.841,201.033
0.135,9.710,3.541,3.541,178.778,194.828,201.052
0.136,9.774,3.524,3.524,178.835,194.809,201.074
0.137,9.851,3.504,3.504,178.903,194.783,201.099
0.139,9.943,3.481,3.481,178.984,194.750,201.128
0.140,10.052,3.455,3.455,179.079,194.709,201.161
0.141,10.178,3.426,3.426,179.189,194.659,201.199
0.142,10.322,3.392,3.392,179.314,194.601,201.240
0.144,10.480,3.356,3.356,179.450,194.535,201.284
0.145,10.647,3.319,3.319,179.594,194.464,201.329
0.146,10.819,3.281,3.281,179.743,194.390,201.376
0.148,10.993,3.246,3.246,179.892,194.314,201.422
0.149,11.165,3.213,3.213,180.040,194.238,201.466
0.150,11.330,3.184,3.184,180.181,194.163,201.508
0.152,11.485,3.162,3.162,180.314,194.093,201.547
0.153,11.625,3.146,3.146,180.434,194.028,201.580
0.154,11.747,3.137,3.137,180.538,193.970,201.608
0.155,11.847,3.132,3.132,180.622,193.921,201.628
0.157,11.921,3.132,3.132,180.684,193.883,201.641
0.158,11.969,3.134,3.134,180.724,193.856,201.646
0.159,11.997,3.138,3.138,180.746,193.839,201.644
0.161,12.011,3.142,3.142,180.755,193.831,201.638
0.162,12.020,3.146,3.146,180.758,193.829,201.630
0.163,12.030,3.149,3.149,180.760,193.833,201.621
0.165,12.043,3.150,3.150,180.764,193.842,201.613
0.166,12.062,3.151,3.151,180.779,193.853,201.608
0.167,12.093,3.152,3.152,180.807,193.866,201.608
0.168,12.143,3.153,3.153,180.855,193.878,201.614
0.170,12.218,3.154,3.154,180.928,193.889,201.629
0.171,12.325,3.156,3.156,181.032,193.898,201.655
0.172,12.469,3.158,3.158,181.171,193.902,201.692
0.174,12.652,3.163,3.163,181.346,193.901,201.742
0.175,12.866,3.169,3.169,181.552,193.897,201.802
0.176,13.105,3.179,3.179,181.781,193.890,201.869
0.177,13.360,3.192,3.192,182.026,193.881,201.941
0.179,13.625,3.211,3.211,182.280,193.873,202.016
0.180,13.892,3.234,3.234,182.536,193.865,202.090
0.181,14.153,3.264,3.264,182.787,193.859,202.162
0.183,14.402,3.301,3.301,183.027,193.857,202.229
0.184,14.630,3.344,3.344,183.247,193.859,202.288
0.185,14.830,3.390,3.390,183.441,193.866,202.336
0.187,14.996,3.436,3.436,183.602,193.880,202.372
0.188,15.121,3.480,3.480,183.724,193.902,202.392
0.189,15.205,3.519,3.519,183.803,193.932,202.396
0.190,15.261,3.550,3.550,183.847,193.966,202.387
0.192,15.303,3.570,3.570,183.863,194.000,202.370
0.193,15.341,3.579,3.579,183.859,194.031,202.348
0.194,15.379,3.577,3.577,183.843,194.056,202.325
0.196,15.411,3.569,3.569,183.823,194.071,202.305
0.197,15.432,3.559,3.559,183.806,194.072,202.291
0.198,15.450,3.551,3.551,183.801,194.055,202.288
0.199,15.491,3.548,3.548,183.815,194.018,202.299
0.201,15.571,3.555,3.555,183.857,193.956,202.328
0.202,15.700,3.576,3.576,183.933,193.866,202.380
0.203,15.887,3.614,3.614,184.052,193.744,202.457
0.205,16.136,3.667,3.667,184.217,193.591,202.561
0.206,16.437,3.733,3.733,184.424,193.413,202.688
0.207,16.779,3.810,3.810,184.667,193.219,202.833
0.209,17.151,3.897,3.897,184.938,193.019,202.990
0.210,17.543,3.990,3.990,185.232,192.820,203.155
0.211,17.942,4.088,4.088,185.542,192.632,203.322
0.212,18.339,4.189,4.189,185.863,192.464,203.486
0.214,18.725,4.290,4.290,186.187,192.324,203.642
0.215,19.092,4.392,4.392,186.509,192.220,203.784
0.216,19.434,4.495,4.495,186.822,192.163,203.908
0.218,19.748,4.596,4.596,187.120,192.159,204.008
0.219,20.040,4.696,4.696,187.397,192.219,204.080
0.220,20.324,4.795,4.795,187.648,192.346,204.119
0.222,20.616,4.891,4.891,187.873,192.532,204.130
0.223,20.925,4.985,4.985,188.074,192.766,204.116
0.224,21.253,5.074,5.074,188.251,193.039,204.082
0.225,21.595,5.158,5.158,188.407,193.340,204.031
0.227,21.947,5.234,5.234,188.542,193.658,203.967
0.228,22.300,5.300,5.300,188.657,193.984,203.895
0.229,22.645,5.354,5.354,188.754,194.306,203.818
0.231,22.972,5.393,5.393,188.834,194.614,203.741
0.232,23.273,5.417,5.417,188.898,194.899,203.667
0.233,23.536,5.423,5.423,188.948,195.148,203.601
0.234,23.751,5.413,5.413,188.983,195.354,203.547
0.236,23.911,5.392,5.392,189.007,195.507,203.508
0.237,24.020,5.364,5.364,189.020,195.612,203.481
0.238,24.085,5.334,5.334,189.025,195.675,203.467
0.240,24.113,5.305,5.305,189.023,195.702,203.462
0.241,24.121,5.283,5.283,189.016,195.699,203.466
0.242,24.151,5.273,5.273,189.006,195.673,203.475
0.244,24.198,5.277,5.277,188.995,195.629,203.489
0.245,24.257,5.294,5.294,188.984,195.573,203.505
0.246,24.321,5.321,5.321,188.977,195.512,203.521
0.247,24.384,5.354,5.354,188.973,195.451,203.537
0.249,24.439,5.391,5.391,188.976,195.397,203.549
0.250,24.482,5.426,5.426,188.988,195.356,203.556
0.251,24.514,5.458,5.458,189.008,195.332,203.556
0.253,24.546,5.481,5.481,189.039,195.325,203.551
0.254,24.587,5.495,5.495,189.078,195.334,203.541
0.255,24.642,5.499,5.499,189.126,195.356,203.527
0.256,24.709,5.496,5.496,189.182,195.391,203.510
0.258,24.788,5.487,5.487,189.245,195.435,203.491
0.259,24.878,5.475,5.475,189.314,195.487,203.471
0.260,24.976,5.460,5.460,189.390,195.546,203.452
0.262,25.081,5.445,5.445,189.472,195.610,203.433
0.263,25.192,5.432,5.432,189.559,195.676,203.417
0.264,25.307,5.421,5.421,189.651,195.744,203.404
0.266,25.424,5.411,5.411,189.747,195.812,203.395
0.267,25.543,5.404,5.404,189.846,195.877,203.391
0.268,25.663,5.396,5.396,189.948,195.940,203.391
0.269,25.783,5.389,5.389,190.051,196.000,203.396
0.271,25.902,5.381,5.381,190.156,196.057,203.405
0.272,26.021,5.372,5.372,190.260,196.112,203.417
0.273,26.137,5.361,5.361,190.364,196.162,203.432
0.275,26.250,5.347,5.347,190.465,196.210,203.448
0.276,26.359,5.333,5.333,190.564,196.253,203.467
0.277,26.464,5.317,5.317,190.658,196.293,203.487
0.278,26.563,5.300,5.300,190.748,196.329,203.508
0.280,26.655,5.284,5.284,190.832,196.361,203.529
0.281,26.740,5.269,5.269,190.910,196.388,203.549
0.282,26.817,5.254,5.254,190.981,196.411,203.569
0.284,26.886,5.241,5.241,191.044,196.430,203.589
0.285,26.948,5.230,5.230,191.101,196.446,203.608
0.286,27.003,5.220,5.220,191.151,196.459,203.626
0.288,27.054,5.210,5.210,191.197,196.471,203.645
0.289,27.100,5.200,5.200,191.238,196.483,203.664
0.290,27.143,5.190,5.190,191.275,196.494,203.683
0.291,27.184,5.179,5.179,191.308,196.506,203.702
0.293,27.223,5.166,5.166,191.338,196.520,203.722
0.294,27.262,5.150,5.150,191.367,196.537,203.744
0.295,27.302,5.133,5.133,191.393,196.556,203.766
0.297,27.344,5.115,5.115,191.419,196.580,203.789
0.298,27.389,5.096,5.096,191.444,196.608,203.814
0.299,27.438,5.077,5.077,191.469,196.641,203.841
0.301,27.490,5.057,5.057,191.494,196.677,203.868
0.302,27.543,5.038,5.038,191.519,196.716,203.895
0.303,27.598,5.021,5.021,191.546,196.756,203.921
0.304,27.654,5.004,5.004,191.574,196.797,203.948
0.306,27.710,4.989,4.989,191.603,196.838,203.973
0.307,27.766,4.974,4.974,191.633,196.877,203.996
0.308,27.820,4.960,4.960,191.666,196.915,204.017
0.310,27.873,4.945,4.945,191.701,196.950,204.036
0.311,27.924,4.930,4.930,191.738,196.981,204.052
0.312,27.974,4.914,4.914,191.779,197.007,204.065
0.313,28.023,4.897,4.897,191.823,197.028,204.073
0.315,28.073,4.878,4.878,191.870,197.044,204.078
0.316,28.126,4.857,4.857,191.921,197.055,204.079
0.317,28.182,4.835,4.835,191.977,197.062,204.076
0.319,28.243,4.812,4.812,192.038,197.066,204.069
0.320,28.310,4.788,4.788,192.103,197.066,204.058
0.321,28.383,4.763,4.763,192.175,197.065,204.044
0.323,28.462,4.737,4.737,192.253,197.062,204.026
0.324,28.549,4.711,4.711,192.337,197.058,204.005
0.325,28.644,4.684,4.684,192.428,197.053,203.981
0.326,28.747,4.658,4.658,192.527,197.049,203.953
0.328,28.857,4.634,4.633,192.633,197.046,203.922
0.329,28.977,4.612,4.611,192.748,197.044,203.887
0.330,29.104,4.593,4.592,192.870,197.043,203.850
0.332,29.237,4.578,4.578,192.997,197.043,203.812
0.333,29.374,4.568,4.568,193.128,197.042,203.772
0.334,29.513,4.564,4.564,193.261,197.041,203.732
0.335,29.652,4.564,4.565,193.394,197.037,203.693
0.337,29.790,4.568,4.569,193.526,197.032,203.655
0.338,29.924,4.574,4.575,193.655,197.023,203.620
0.339,30.052,4.579,4.581,193.779,197.010,203.588
0.341,30.174,4.583,4.584,193.897,196.993,203.559
0.342,30.288,4.583,4.584,194.006,196.971,203.536
0.343,30.393,4.578,4.579,194.105,196.943,203.518
0.345,30.489,4.567,4.566,194.193,196.908,203.507
0.346,30.577,4.549,4.546,194.272,196.867,203.503
0.347,30.663,4.523,4.519,194.346,196.823,203.507
0.348,30.751,4.489,4.483,194.421,196.779,203.519
0.350,30.844,4.446,4.440,194.500,196.736,203.540
0.351,30.946,4.394,4.389,194.589,196.697,203.572
0.352,31.062,4.333,4.330,194.693,196.664,203.613
0.354,31.199,4.262,4.262,194.816,196.640,203.666
0.355,31.360,4.182,4.188,194.964,196.626,203.731
0.356,31.552,4.097,4.110,195.140,196.626,203.808
0.358,31.781,4.013,4.033,195.350,196.642,203.898
0.359,32.053,3.935,3.963,195.598,196.675,204.002
0.360,32.371,3.867,3.904,195.889,196.728,204.120
0.361,32.736,3.815,3.860,196.221,196.802,204.251
0.363,33.137,3.784,3.837,196.586,196.892,204.393
0.364,33.567,3.779,3.839,196.975,196.998,204.542
0.365,34.017,3.803,3.867,197.380,197.115,204.696
0.367,34.477,3.849,3.918,197.794,197.243,204.852
0.368,34.939,3.915,3.985,198.209,197.378,205.007
0.369,35.395,3.993,4.065,198.615,197.517,205.158
0.370,35.835,4.080,4.151,199.006,197.659,205.303
0.372,36.251,4.171,4.239,199.373,197.801,205.439
0.373,36.634,4.260,4.324,199.707,197.940,205.562
0.374,36.975,4.342,4.401,200.002,198.073,205.671
0.376,37.267,4.415,4.466,200.248,198.199,205.762
0.377,37.507,4.480,4.522,200.445,198.316,205.836
0.378,37.703,4.536,4.570,200.598,198.424,205.893
0.380,37.859,4.585,4.609,200.712,198.522,205.936
0.381,37.982,4.626,4.642,200.791,198.610,205.968
0.382,38.078,4.661,4.668,200.842,198.688,205.990
0.383,38.153,4.689,4.690,200.870,198.757,206.004
0.385,38.212,4.711,4.708,200.880,198.814,206.012
0.386,38.259,4.728,4.722,200.877,198.862,206.016
0.387,38.297,4.740,4.734,200.866,198.898,206.019
0.389,38.326,4.749,4.744,200.854,198.924,206.022
0.390,38.344,4.756,4.752,200.844,198.938,206.027
0.391,38.355,4.762,4.759,200.843,198.941,206.037
0.392,38.373,4.767,4.765,200.851,198.934,206.051
0.394,38.401,4.772,4.772,200.869,198.920,206.069
0.395,38.436,4.778,4.779,200.893,198.903,206.088
0.396,38.475,4.785,4.786,200.921,198.885,206.107
0.398,38.513,4.792,4.793,200.952,198.870,206.124
0.399,38.549,4.797,4.798,200.984,198.862,206.138
0.400,38.581,4.800,4.801,201.015,198.863,206.146
0.402,38.612,4.800,4.800,201.043,198.876,206.147
0.403,38.650,4.796,4.796,201.065,198.906,206.140
0.404,38.704,4.786,4.786,201.081,198.954,206.122
0.405,38.781,4.771,4.771,201.087,199.026,206.093
0.407,38.887,4.750,4.751,201.083,199.123,206.050
0.408,39.023,4.724,4.725,201.067,199.245,205.993
0.409,39.186,4.693,4.695,201.042,199.390,205.924
0.411,39.371,4.656,4.659,201.007,199.554,205.844
0.412,39.573,4.616,4.618,200.966,199.731,205.756
0.413,39.789,4.571,4.572,200.919,199.919,205.661
0.415,40.013,4.522,4.521,200.868,200.113,205.560
0.416,40.242,4.470,4.467,200.814,200.309,205.457
0.417,40.470,4.415,4.410,200.759,200.503,205.351
0.418,40.693,4.360,4.353,200.705,200.692,205.246
0.420,40.906,4.306,4.297,200.652,200.871,205.142
0.421,41.105,4.254,4.245,200.603,201.036,205.042
0.422,41.285,4.205,4.198,200.559,201.184,204.948
0.424,41.446,4.161,4.158,200.520,201.312,204.860
0.425,41.590,4.124,4.127,200.487,201.425,204.777
0.426,41.720,4.093,4.106,200.458,201.526,204.699
0.427,41.841,4.068,4.093,200.434,201.618,204.625
0.429,41.956,4.049,4.086,200.414,201.706,204.555
0.430,42.068,4.035,4.084,200.398,201.794,204.486
0.431,42.181,4.027,4.086,200.385,201.884,204.420
0.433,42.299,4.023,4.089,200.374,201.981,204.354
0.434,42.425,4.022,4.094,200.366,202.088,204.288
0.435,42.563,4.026,4.098,200.360,202.209,204.221
0.437,42.719,4.033,4.102,200.356,202.348,204.152
0.438,42.894,4.044,4.106,200.352,202.509,204.081
0.439,43.091,4.058,4.112,200.349,202.692,204.007
0.440,43.306,4.076,4.120,200.347,202.893,203.932
0.442,43.534,4.099,4.132,200.344,203.107,203.855
0.443,43.771,4.125,4.148,200.341,203.331,203.777
0.444,44.010,4.155,4.170,200.337,203.558,203.700
0.446,44.249,4.189,4.198,200.331,203.784,203.624
0.447,44.481,4.227,4.230,200.324,204.004,203.551
0.448,44.703,4.265,4.266,200.316,204.214,203.480
0.449,44.909,4.303,4.303,200.304,204.408,203.412
0.451,45.095,4.340,4.339,200.290,204.582,203.349
0.452,45.256,4.373,4.372,200.273,204.732,203.291
0.453,45.387,4.402,4.401,200.253,204.851,203.240
0.455,45.488,4.424,4.424,200.229,204.938,203.195
0.456,45.563,4.438,4.439,200.204,204.997,203.156
0.457,45.616,4.445,4.446,200.180,205.031,203.124
0.459,45.652,4.446,4.447,200.158,205.045,203.098
0.460,45.678,4.440,4.441,200.142,205.043,203.078
0.461,45.699,4.429,4.429,200.132,205.029,203.065
0.462,45.722,4.412,4.412,200.132,205.008,203.057
0.464,45.748,4.391,4.391,200.143,204.984,203.054
0.465,45.782,4.365,4.365,200.167,204.961,203.058
0.466,45.826,4.336,4.336,200.206,204.943,203.066
0.468,45.885,4.305,4.305,200.262,204.935,203.080
0.469,45.963,4.273,4.273,200.338,204.941,203.099
0.470,46.065,4.242,4.243,200.434,204.964,203.123
0.472,46.186,4.214,4.214,200.546,205.004,203.146
0.473,46.324,4.188,4.189,200.670,205.063,203.165
0.474,46.476,4.168,4.168,200.800,205.140,203.176
0.475,46.639,4.154,4.154,200.931,205.236,203.175
0.477,46.812,4.148,4.147,201.060,205.351,203.156
0.478,46.998,4.147,4.148,201.182,205.486,203.117
0.479,47.197,4.153,4.158,201.291,205.640,203.052
0.481,47.416,4.164,4.176,201.384,205.814,202.958
0.482,47.659,4.179,4.203,201.455,206.008,202.830
0.483,47.934,4.200,4.240,201.499,206.222,202.664
0.484,48.248,4.224,4.287,201.513,206.457,202.455
0.486,48.608,4.252,4.345,201.493,206.713,202.203
0.487,49.008,4.284,4.412,201.444,206.985,201.914
0.488,49.439,4.321,4.487,201.372,207.271,201.599
0.490,49.892,4.363,4.567,201.282,207.566,201.267
0.491,50.356,4.413,4.649,201.182,207.866,200.928
0.492,50.821,4.470,4.732,201.075,208.169,200.591
0.494,51.276,4.536,4.814,200.969,208.469,200.266
0.495,51.711,4.612,4.892,200.869,208.763,199.963
0.496,52.115,4.697,4.964,200.782,209.048,199.691
0.497,52.478,4.790,5.030,200.712,209.320,199.459
0.499,52.794,4.885,5.089,200.666,209.575,199.278
0.500,53.058,4.978,5.139,200.651,209.808,199.157
0.501,53.275,5.066,5.180,200.669,210.018,199.102
0.503,53.470,5.143,5.213,200.719,210.206,199.107
0.504,53.664,5.205,5.235,200.796,210.374,199.164
0.505,53.871,5.249,5.246,200.897,210.526,199.262
0.506,54.096,5.271,5.246,201.018,210.664,199.392
0.508,54.337,5.275,5.239,201.154,210.791,199.546
0.509,54.590,5.267,5.228,201.302,210.909,199.713
0.510,54.847,5.250,5.216,201.457,211.022,199.885
0.512,55.102,5.228,5.206,201.615,211.132,200.052
0.513,55.347,5.208,5.203,201.773,211.241,200.205
0.514,55.577,5.192,5.210,201.925,211.352,200.334
0.516,55.786,5.186,5.229,202.070,211.469,200.431
0.517,55.975,5.192,5.263,202.201,211.593,200.488
0.518,56.153,5.209,5.308,202.321,211.723,200.507
0.519,56.324,5.236,5.361,202.428,211.856,200.493
0.521,56.495,5.272,5.420,202.524,211.992,200.452
0.522,56.667,5.315,5.482,202.608,212.126,200.388
0.523,56.838,5.364,5.543,202.683,212.258,200.307
0.525,57.009,5.417,5.600,202.747,212.384,200.213
0.526,57.174,5.474,5.650,202.803,212.504,200.112
0.527,57.332,5.533,5.693,202.849,212.614,200.009
0.528,57.478,5.592,5.728,202.888,212.712,199.909
