"T","Distance","Radius","FreeRadius","X","Y","Z"
0.000,0.000,2.022,2.022,-39.469,116.948,162.663
0.001,0.145,2.025,2.025,-39.525,117.024,162.773
0.003,0.289,2.030,2.030,-39.580,117.100,162.882
0.004,0.431,2.037,2.037,-39.632,117.179,162.989
0.005,0.572,2.049,2.049,-39.681,117.260,163.093
0.006,0.710,2.065,2.065,-39.724,117.345,163.193
0.008,0.846,2.088,2.088,-39.761,117.435,163.288
0.009,0.980,2.118,2.118,-39.790,117.531,163.377
0.010,1.113,2.157,2.157,-39.810,117.633,163.459
0.011,1.246,2.207,2.207,-39.820,117.743,163.533
0.013,1.381,2.267,2.267,-39.819,117.861,163.599
0.014,1.521,2.338,2.338,-39.804,117.989,163.655
0.015,1.669,2.420,2.420,-39.776,118.128,163.700
0.016,1.829,2.515,2.515,-39.733,118.277,163.733
0.018,2.001,2.622,2.622,-39.673,118.437,163.755
0.019,2.184,2.742,2.742,-39.599,118.604,163.769
0.020,2.377,2.874,2.874,-39.511,118.776,163.778
0.022,2.577,3.020,3.020,-39.410,118.948,163.784
0.023,2.782,3.172,3.172,-39.297,119.118,163.790
0.024,2.989,3.325,3.325,-39.172,119.284,163.800
0.025,3.198,3.473,3.473,-39.036,119.441,163.815
0.027,3.406,3.609,3.609,-38.889,119.587,163.839
0.028,3.612,3.728,3.728,-38.734,119.718,163.875
0.029,3.818,3.823,3.823,-38.571,119.833,163.924
0.030,4.024,3.888,3.888,-38.399,119.926,163.991
0.032,4.234,3.921,3.921,-38.221,119.996,164.078
0.033,4.452,3.927,3.927,-38.037,120.041,164.186
0.034,4.681,3.913,3.913,-37.849,120.061,164.313
0.036,4.919,3.888,3.888,-37.658,120.061,164.457
0.037,5.167,3.858,3.858,-37.467,120.042,164.612
0.038,5.421,3.832,3.832,-37.276,120.008,164.777
0.039,5.678,3.817,3.817,-37.089,119.961,164.947
0.041,5.935,3.819,3.819,-36.906,119.904,165.119
0.042,6.189,3.845,3.845,-36.730,119.841,165.290
0.043,6.434,3.889,3.889,-36.562,119.773,165.456
0.044,6.668,3.947,3.947,-36.404,119.705,165.613
0.046,6.885,4.013,4.013,-36.258,119.637,165.759
0.047,7.081,4.083,4.083,-36.126,119.575,165.890
0.048,7.252,4.151,4.151,-36.009,119.520,166.002
0.049,7.397,4.213,4.213,-35.908,119.473,166.094
0.051,7.518,4.263,4.263,-35.822,119.433,166.170
0.052,7.619,4.298,4.298,-35.749,119.401,166.231
0.053,7.701,4.320,4.320,-35.688,119.375,166.280
0.055,7.767,4.332,4.332,-35.638,119.355,166.318
0.056,7.820,4.336,4.336,-35.597,119.339,166.349
0.057,7.862,4.334,4.334,-35.566,119.327,166.374
0.058,7.897,4.328,4.328,-35.541,119.319,166.397
0.060,7.926,4.321,4.321,-35.522,119.314,166.418
0.061,7.953,4.315,4.315,-35.509,119.310,166.442
0.062,7.982,4.312,4.312,-35.498,119.307,166.469
0.063,8.017,4.311,4.311,-35.490,119.305,166.502
0.065,8.059,4.313,4.313,-35.484,119.302,166.543
0.066,8.108,4.318,4.318,-35.478,119.300,166.592
0.067,8.163,4.324,4.324,-35.472,119.297,166.647
0.069,8.222,4.333,4.333,-35.467,119.294,166.706
0.070,8.285,4.343,4.343,-35.462,119.291,166.768
0.071,8.349,4.355,4.355,-35.456,119.289,166.833
0.072,8.414,4.368,4.368,-35.449,119.286,166.897
0.074,8.478,4.381,4.381,-35.441,119.285,166.960
0.075,8.540,4.394,4.394,-35.432,119.283,167.022
0.076,8.598,4.406,4.406,-35.421,119.283,167.079
0.077,8.652,4.415,4.415,-35.407,119.283,167.131
0.079,8.700,4.422,4.422,-35.392,119.284,167.176
0.080,8.742,4.426,4.426,-35.374,119.286,167.214
0.081,8.778,4.424,4.424,-35.353,119.289,167.243
0.082,8.809,4.419,4.419,-35.331,119.292,167.265
0.084,8.837,4.410,4.410,-35.307,119.296,167.279
0.085,8.862,4.399,4.399,-35.283,119.299,167.286
0.086,8.885,4.388,4.388,-35.260,119.302,167.288
0.088,8.907,4.377,4.377,-35.238,119.304,167.284
0.089,8.929,4.369,4.369,-35.218,119.305,167.276
0.090,8.950,4.364,4.364,-35.201,119.304,167.263
0.091,8.972,4.364,4.364,-35.188,119.301,167.247
0.093,8.993,4.370,4.370,-35.179,119.296,167.228
0.094,9.016,4.380,4.380,-35.174,119.289,167.207
0.095,9.042,4.392,4.392,-35.176,119.278,167.184
0.096,9.070,4.406,4.406,-35.184,119.265,167.160
0.098,9.101,4.420,4.420,-35.195,119.249,167.136
0.099,9.133,4.433,4.433,-35.206,119.232,167.111
0.100,9.163,4.444,4.444,-35.216,119.216,167.088
0.102,9.190,4.451,4.451,-35.219,119.201,167.065
0.103,9.215,4.454,4.454,-35.213,119.189,167.045
0.104,9.241,4.453,4.453,-35.195,119.180,167.028
0.105,9.277,4.449,4.449,-35.163,119.178,167.013
0.107,9.329,4.441,4.441,-35.111,119.181,167.003
0.108,9.403,4.431,4.431,-35.039,119.193,166.996
0.109,9.502,4.419,4.419,-34.941,119.213,166.995
0.110,9.631,4.405,4.405,-34.816,119.244,167.000
0.112,9.793,4.389,4.389,-34.661,119.286,167.010
0.113,9.986,4.373,4.373,-34.475,119.339,167.027
0.114,10.205,4.356,4.357,-34.266,119.401,167.049
0.115,10.444,4.342,4.342,-34.039,119.469,167.074
0.117,10.695,4.329,4.330,-33.801,119.541,167.103
0.118,10.952,4.320,4.321,-33.556,119.616,167.133
0.119,11.209,4.317,4.317,-33.312,119.690,167.163
0.121,11.459,4.319,4.319,-33.074,119.761,167.193
0.122,11.695,4.327,4.327,-32.849,119.827,167.221
0.123,11.912,4.343,4.342,-32.642,119.885,167.246
0.124,12.102,4.363,4.361,-32.460,119.934,167.267
0.126,12.259,4.385,4.382,-32.308,119.971,167.283
0.127,12.377,4.408,4.405,-32.193,119.993,167.293
0.128,12.452,4.429,4.426,-32.118,120.000,167.296
0.129,12.490,4.446,4.444,-32.080,119.993,167.293
0.131,12.510,4.458,4.456,-32.070,119.977,167.287
0.132,12.536,4.461,4.462,-32.083,119.956,167.279
0.133,12.571,4.457,4.462,-32.109,119.933,167.271
0.135,12.611,4.448,4.456,-32.142,119.913,167.265
0.136,12.646,4.437,4.447,-32.174,119.898,167.264
0.137,12.671,4.426,4.438,-32.198,119.894,167.268
0.138,12.689,4.417,4.429,-32.207,119.904,167.281
0.140,12.727,4.414,4.424,-32.194,119.931,167.303
0.141,12.802,4.419,4.423,-32.151,119.980,167.338
0.142,12.922,4.435,4.429,-32.070,120.055,167.386
0.143,13.097,4.461,4.444,-31.945,120.159,167.450
0.145,13.327,4.498,4.469,-31.774,120.293,167.529
0.146,13.605,4.544,4.505,-31.565,120.451,167.621
0.147,13.921,4.599,4.554,-31.325,120.630,167.722
0.148,14.266,4.661,4.617,-31.060,120.823,167.830
0.150,14.631,4.730,4.696,-30.779,121.028,167.941
0.151,15.007,4.804,4.792,-30.488,121.237,168.053
0.152,15.384,4.884,4.907,-30.194,121.448,168.163
0.154,15.754,4.966,5.036,-29.906,121.655,168.266
0.155,16.108,5.050,5.175,-29.629,121.853,168.361
0.156,16.435,5.133,5.317,-29.372,122.037,168.445
0.157,16.728,5.214,5.455,-29.141,122.203,168.514
0.159,16.977,5.290,5.583,-28.943,122.346,168.565
0.160,17.175,5.359,5.694,-28.785,122.462,168.596
0.161,17.327,5.420,5.783,-28.665,122.553,168.609
0.162,17.438,5.471,5.844,-28.577,122.621,168.604
0.164,17.517,5.511,5.876,-28.519,122.671,168.586
0.165,17.574,5.542,5.885,-28.484,122.704,168.555
0.166,17.621,5.564,5.873,-28.470,122.725,168.515
0.168,17.670,5.578,5.847,-28.472,122.736,168.467
0.169,17.725,5.585,5.809,-28.484,122.741,168.414
0.170,17.784,5.586,5.765,-28.504,122.743,168.358
0.171,17.845,5.581,5.718,-28.526,122.745,168.301
0.173,17.904,5.573,5.673,-28.547,122.749,168.246
0.174,17.959,5.561,5.632,-28.561,122.761,168.195
0.175,18.009,5.549,5.596,-28.566,122.781,168.150
0.176,18.059,5.537,5.567,-28.558,122.812,168.111
0.178,18.114,5.527,5.544,-28.539,122.854,168.080
0.179,18.178,5.522,5.530,-28.511,122.905,168.055
0.180,18.250,5.523,5.526,-28.475,122.966,168.037
0.181,18.331,5.532,5.532,-28.434,123.034,168.023
0.183,18.419,5.550,5.549,-28.389,123.109,168.016
0.184,18.515,5.576,5.577,-28.340,123.192,168.013
0.185,18.616,5.610,5.611,-28.291,123.280,168.014
0.187,18.721,5.648,5.651,-28.242,123.373,168.020
0.188,18.830,5.689,5.694,-28.196,123.471,168.029
0.189,18.941,5.731,5.736,-28.153,123.572,168.042
0.190,19.053,5.772,5.776,-28.116,123.677,168.057
0.192,19.166,5.810,5.811,-28.085,123.784,168.076
0.193,19.279,5.844,5.839,-28.059,123.892,168.095
0.194,19.392,5.872,5.861,-28.038,124.001,168.116
0.195,19.505,5.896,5.877,-28.018,124.110,168.138
0.197,19.617,5.915,5.890,-27.997,124.219,168.159
0.198,19.728,5.930,5.902,-27.975,124.325,168.179
0.199,19.837,5.941,5.915,-27.949,124.430,168.197
0.201,19.944,5.949,5.930,-27.917,124.531,168.213
0.202,20.050,5.953,5.949,-27.877,124.628,168.226
0.203,20.155,5.954,5.974,-27.828,124.721,168.235
0.204,20.262,5.953,6.003,-27.767,124.808,168.240
0.206,20.371,5.950,6.033,-27.693,124.889,168.239
0.207,20.488,5.945,6.063,-27.604,124.963,168.232
0.208,20.612,5.938,6.089,-27.500,125.030,168.219
0.209,20.746,5.930,6.109,-27.382,125.090,168.202
0.211,20.888,5.922,6.121,-27.252,125.144,168.180
0.212,21.037,5.914,6.121,-27.113,125.193,168.157
0.213,21.192,5.905,6.109,-26.967,125.238,168.131
0.214,21.350,5.896,6.084,-26.816,125.278,168.106
0.216,21.511,5.886,6.048,-26.661,125.314,168.081
0.217,21.672,5.873,6.004,-26.506,125.348,168.058
0.218,21.831,5.856,5.953,-26.351,125.380,168.038
0.220,21.987,5.835,5.897,-26.199,125.410,168.022
0.221,22.137,5.808,5.838,-26.053,125.439,168.011
0.222,22.279,5.775,5.777,-25.913,125.467,168.007
0.223,22.413,5.734,5.717,-25.782,125.496,168.010
0.225,22.539,5.688,5.659,-25.660,125.525,168.021
0.226,22.658,5.639,5.604,-25.546,125.554,168.038
0.227,22.770,5.588,5.553,-25.441,125.583,168.062
0.228,22.876,5.538,5.507,-25.342,125.612,168.091
0.230,22.979,5.491,5.468,-25.251,125.640,168.127
0.231,23.077,5.449,5.437,-25.165,125.667,168.168
0.232,23.173,5.415,5.414,-25.085,125.694,168.214
0.234,23.267,5.390,5.401,-25.011,125.719,168.264
0.235,23.358,5.373,5.396,-24.941,125.744,168.318
0.236,23.449,5.361,5.397,-24.875,125.767,168.377
0.237,23.539,5.354,5.402,-24.813,125.789,168.438
0.239,23.629,5.349,5.408,-24.754,125.809,168.503
0.240,23.718,5.345,5.414,-24.698,125.827,168.570
0.241,23.807,5.338,5.416,-24.645,125.844,168.638
0.242,23.894,5.328,5.414,-24.594,125.859,168.708
0.244,23.979,5.313,5.404,-24.546,125.873,168.776
0.245,24.061,5.293,5.388,-24.501,125.885,168.844
0.246,24.140,5.270,5.367,-24.459,125.896,168.910
0.247,24.215,5.244,5.343,-24.420,125.906,168.973
0.249,24.285,5.218,5.316,-24.384,125.915,169.033
0.250,24.350,5.193,5.289,-24.350,125.922,169.087
0.251,24.408,5.168,5.262,-24.319,125.929,169.136
0.253,24.460,5.147,5.236,-24.292,125.935,169.179
0.254,24.503,5.129,5.213,-24.267,125.940,169.215
0.255,24.539,5.114,5.192,-24.245,125.945,169.243
0.256,24.568,5.101,5.173,-24.225,125.949,169.264
0.258,24.593,5.090,5.155,-24.206,125.954,169.280
0.259,24.615,5.079,5.137,-24.189,125.959,169.292
0.260,24.637,5.067,5.118,-24.171,125.967,169.302
0.261,24.660,5.054,5.098,-24.153,125.976,169.312
0.263,24.687,5.039,5.076,-24.132,125.989,169.324
0.264,24.718,5.021,5.052,-24.110,126.004,169.338
0.265,24.755,4.999,5.025,-24.084,126.024,169.358
0.266,24.801,4.975,4.995,-24.055,126.048,169.383
0.268,24.856,4.947,4.963,-24.021,126.077,169.416
0.269,24.924,4.917,4.929,-23.982,126.112,169.459
0.270,25.006,4.884,4.892,-23.936,126.153,169.513
0.272,25.102,4.849,4.852,-23.885,126.200,169.578
0.273,25.208,4.811,4.810,-23.828,126.252,169.653
0.274,25.324,4.770,4.766,-23.768,126.307,169.735
0.275,25.445,4.728,4.721,-23.707,126.363,169.822
0.277,25.568,4.686,4.676,-23.644,126.419,169.913
0.278,25.692,4.643,4.632,-23.583,126.474,170.005
0.279,25.813,4.601,4.590,-23.523,126.526,170.096
0.280,25.928,4.561,4.552,-23.467,126.574,170.185
0.282,26.034,4.523,4.518,-23.416,126.615,170.269
0.283,26.129,4.489,4.490,-23.372,126.649,170.345
0.284,26.211,4.458,4.468,-23.335,126.674,170.413
0.286,26.276,4.432,4.451,-23.307,126.688,170.471
0.287,26.324,4.410,4.440,-23.289,126.691,170.515
0.288,26.359,4.392,4.434,-23.279,126.684,170.548
0.289,26.387,4.379,4.431,-23.277,126.671,170.573
0.291,26.411,4.371,4.430,-23.278,126.655,170.590
0.292,26.432,4.368,4.432,-23.282,126.638,170.604
0.293,26.450,4.370,4.436,-23.286,126.625,170.615
0.294,26.463,4.377,4.439,-23.287,126.618,170.626
0.296,26.478,4.385,4.441,-23.284,126.621,170.640
0.297,26.504,4.392,4.440,-23.274,126.637,170.659
0.298,26.549,4.395,4.432,-23.255,126.668,170.685
0.299,26.617,4.390,4.416,-23.225,126.719,170.720
0.301,26.714,4.375,4.390,-23.182,126.792,170.766
0.302,26.844,4.346,4.352,-23.123,126.890,170.827
0.303,27.007,4.301,4.300,-23.048,127.014,170.902
0.305,27.202,4.239,4.233,-22.959,127.162,170.992
0.306,27.423,4.164,4.156,-22.857,127.329,171.095
0.307,27.667,4.082,4.073,-22.746,127.514,171.210
0.308,27.930,3.998,3.990,-22.627,127.712,171.337
0.310,28.209,3.917,3.911,-22.502,127.920,171.473
0.311,28.499,3.845,3.840,-22.374,128.135,171.619
0.312,28.797,3.785,3.784,-22.243,128.355,171.774
0.313,29.100,3.745,3.745,-22.114,128.575,171.936
0.315,29.403,3.726,3.728,-21.987,128.792,172.104
0.316,29.703,3.727,3.730,-21.864,129.004,172.278
0.317,29.997,3.745,3.749,-21.749,129.208,172.456
0.319,30.282,3.779,3.783,-21.642,129.399,172.638
0.320,30.557,3.827,3.830,-21.544,129.578,172.822
0.321,30.822,3.885,3.888,-21.454,129.746,173.006
0.322,31.076,3.953,3.954,-21.373,129.902,173.189
0.324,31.318,4.027,4.027,-21.300,130.048,173.369
0.325,31.549,4.106,4.104,-21.234,130.184,173.543
0.326,31.767,4.187,4.183,-21.175,130.311,173.711
0.327,31.972,4.269,4.264,-21.124,130.428,173.871
0.329,32.163,4.349,4.343,-21.079,130.537,174.021
0.330,32.338,4.426,4.420,-21.040,130.638,174.158
0.331,32.497,4.497,4.492,-21.007,130.732,174.282
0.332,32.639,4.560,4.557,-20.979,130.819,174.391
0.334,32.763,4.613,4.615,-20.957,130.899,174.483
0.335,32.870,4.656,4.663,-20.939,130.974,174.558
0.336,32.962,4.689,4.704,-20.926,131.044,174.617
0.338,33.043,4.715,4.737,-20.915,131.110,174.662
0.339,33.115,4.733,4.763,-20.906,131.173,174.695
0.340,33.180,4.745,4.783,-20.898,131.233,174.718
0.341,33.242,4.754,4.799,-20.890,131.293,174.732
0.343,33.302,4.759,4.810,-20.881,131.351,174.741
0.344,33.362,4.762,4.818,-20.871,131.411,174.745
0.345,33.423,4.764,4.823,-20.859,131.471,174.746
0.346,33.488,4.767,4.827,-20.842,131.533,174.747
0.348,33.557,4.769,4.831,-20.822,131.599,174.748
0.349,33.631,4.773,4.834,-20.796,131.668,174.753
0.350,33.712,4.779,4.839,-20.764,131.742,174.762
0.352,33.800,4.787,4.846,-20.727,131.820,174.777
0.353,33.895,4.798,4.857,-20.684,131.903,174.796
0.354,33.997,4.813,4.871,-20.636,131.990,174.820
0.355,34.105,4.832,4.890,-20.585,132.081,174.848
0.357,34.219,4.856,4.913,-20.530,132.175,174.881
0.358,34.338,4.883,4.940,-20.472,132.273,174.918
0.359,34.463,4.913,4.970,-20.412,132.373,174.960
0.360,34.591,4.948,5.003,-20.350,132.477,175.005
0.362,34.724,4.985,5.039,-20.287,132.583,175.054
0.363,34.860,5.026,5.077,-20.224,132.691,175.107
0.364,34.999,5.070,5.116,-20.161,132.801,175.163
0.365,35.140,5.117,5.158,-20.098,132.913,175.222
0.367,35.283,5.166,5.201,-20.037,133.026,175.285
0.368,35.427,5.216,5.245,-19.977,133.139,175.350
0.369,35.570,5.266,5.290,-19.919,133.252,175.416
0.371,35.712,5.315,5.337,-19.862,133.363,175.484
0.372,35.851,5.363,5.386,-19.808,133.472,175.552
0.373,35.986,5.408,5.435,-19.757,133.578,175.619
0.374,36.117,5.450,5.486,-19.708,133.679,175.685
0.376,36.241,5.489,5.537,-19.662,133.775,175.749
0.377,36.358,5.524,5.587,-19.619,133.864,175.811
0.378,36.467,5.556,5.637,-19.580,133.947,175.870
0.379,36.566,5.585,5.685,-19.545,134.022,175.924
0.381,36.654,5.611,5.730,-19.513,134.088,175.974
0.382,36.731,5.634,5.771,-19.486,134.144,176.019
0.383,36.798,5.654,5.808,-19.462,134.191,176.059
0.385,36.856,5.671,5.839,-19.439,134.231,176.095
0.386,36.906,5.686,5.865,-19.418,134.264,176.126
0.387,36.952,5.698,5.885,-19.395,134.293,176.155
0.388,36.996,5.709,5.900,-19.371,134.318,176.180
0.390,37.038,5.719,5.909,-19.343,134.340,176.203
0.391,37.083,5.727,5.914,-19.310,134.362,176.224
0.392,37.132,5.735,5.914,-19.271,134.384,176.244
0.393,37.187,5.743,5.909,-19.224,134.407,176.263
0.395,37.251,5.750,5.900,-19.169,134.434,176.282
0.396,37.326,5.759,5.888,-19.104,134.464,176.301
0.397,37.413,5.768,5.875,-19.027,134.501,176.322
0.398,37.514,5.779,5.863,-18.938,134.543,176.343
0.400,37.626,5.793,5.853,-18.840,134.591,176.368
0.401,37.747,5.810,5.848,-18.735,134.642,176.396
0.402,37.875,5.831,5.850,-18.624,134.697,176.429
0.404,38.008,5.857,5.861,-18.509,134.754,176.467
0.405,38.145,5.887,5.882,-18.394,134.811,176.513
0.406,38.285,5.922,5.913,-18.279,134.869,176.568
0.407,38.425,5.961,5.952,-18.167,134.925,176.631
0.409,38.565,6.004,5.997,-18.060,134.979,176.705
0.410,38.706,6.050,6.047,-17.961,135.029,176.790
0.411,38.846,6.097,6.098,-17.871,135.075,176.888
0.412,38.989,6.146,6.148,-17.792,135.116,177.000
0.414,39.135,6.196,6.197,-17.726,135.150,177.126
0.415,39.287,6.245,6.241,-17.674,135.178,177.266
0.416,39.446,6.294,6.282,-17.632,135.202,177.417
0.418,39.611,6.340,6.319,-17.600,135.222,177.578
0.419,39.783,6.385,6.355,-17.577,135.240,177.747
0.420,39.959,6.426,6.392,-17.560,135.258,177.922
0.421,40.140,6.462,6.429,-17.548,135.275,178.101
0.423,40.322,6.494,6.469,-17.539,135.294,178.282
0.424,40.504,6.521,6.513,-17.533,135.316,178.463
0.425,40.686,6.540,6.562,-17.527,135.342,178.642
0.426,40.865,6.555,6.616,-17.521,135.374,178.818
0.428,41.040,6.566,6.671,-17.511,135.411,178.989
0.429,41.210,6.575,6.728,-17.498,135.457,179.152
0.430,41.374,6.584,6.782,-17.480,135.510,179.307
0.431,41.534,6.595,6.832,-17.457,135.570,179.453
0.433,41.688,6.610,6.876,-17.432,135.636,179.590
0.434,41.837,6.631,6.912,-17.404,135.705,179.719
0.435,41.981,6.659,6.939,-17.374,135.777,179.840
0.437,42.119,6.693,6.956,-17.343,135.851,179.953
0.438,42.251,6.732,6.966,-17.312,135.924,180.058
0.439,42.375,6.775,6.970,-17.282,135.996,180.154
0.440,42.491,6.818,6.970,-17.254,136.065,180.243
0.442,42.598,6.861,6.968,-17.227,136.130,180.324
0.443,42.696,6.901,6.966,-17.204,136.189,180.398
0.444,42.782,6.937,6.966,-17.185,136.242,180.464
0.445,42.857,6.968,6.968,-17.170,136.286,180.522
0.447,42.920,6.992,6.975,-17.160,136.322,180.574
0.448,42.974,7.011,6.984,-17.154,136.350,180.619
0.449,43.019,7.026,6.995,-17.152,136.372,180.658
0.451,43.057,7.036,7.008,-17.152,136.389,180.692
0.452,43.088,7.043,7.022,-17.155,136.400,180.721
0.453,43.114,7.047,7.037,-17.159,136.408,180.745
0.454,43.135,7.049,7.051,-17.166,136.412,180.765
0.456,43.154,7.050,7.064,-17.173,136.413,180.782
0.457,43.169,7.050,7.076,-17.180,136.413,180.796
0.458,43.183,7.049,7.087,-17.187,136.411,180.808
0.459,43.195,7.047,7.097,-17.194,136.410,180.817
0.461,43.205,7.045,7.105,-17.199,136.409,180.826
0.462,43.213,7.044,7.112,-17.203,136.408,180.833
0.463,43.220,7.042,7.118,-17.206,136.409,180.839
0.464,43.225,7.042,7.122,-17.207,136.410,180.844
0.466,43.229,7.042,7.125,-17.208,136.412,180.848
0.467,43.233,7.043,7.126,-17.207,136.414,180.850
0.468,43.235,7.044,7.126,-17.207,136.416,180.852
0.470,43.237,7.046,7.125,-17.205,136.417,180.852
0.471,43.239,7.047,7.123,-17.204,136.418,180.850
0.472,43.242,7.048,7.120,-17.202,136.418,180.847
0.473,43.247,7.047,7.116,-17.201,136.417,180.843
0.475,43.253,7.046,7.112,-17.200,136.415,180.837
0.476,43.261,7.043,7.108,-17.199,136.411,180.830
0.477,43.272,7.039,7.104,-17.199,136.406,180.821
0.478,43.284,7.034,7.100,-17.200,136.400,180.811
0.480,43.296,7.028,7.096,-17.201,136.392,180.801
0.481,43.308,7.023,7.094,-17.203,136.385,180.792
0.482,43.318,7.018,7.093,-17.204,136.378,180.784
0.484,43.326,7.013,7.094,-17.205,136.373,180.779
0.485,43.330,7.011,7.097,-17.206,136.369,180.778
0.486,43.333,7.009,7.102,-17.206,136.367,180.780
0.487,43.341,7.009,7.109,-17.205,136.369,180.788
0.489,43.356,7.009,7.117,-17.203,136.374,180.802
0.490,43.378,7.009,7.126,-17.200,136.383,180.823
0.491,43.410,7.009,7.134,-17.196,136.397,180.851
0.492,43.453,7.008,7.141,-17.190,136.416,180.888
0.494,43.505,7.004,7.146,-17.182,136.440,180.934
0.495,43.566,6.999,7.149,-17.173,136.470,180.987
0.496,43.635,6.990,7.149,-17.164,136.503,181.046
0.497,43.708,6.979,7.146,-17.155,136.539,181.109
0.499,43.784,6.967,7.140,-17.147,136.578,181.174
0.500,43.861,6.954,7.131,-17.139,136.618,181.240
0.501,43.938,6.941,7.120,-17.134,136.659,181.305
0.503,44.013,6.928,7.105,-17.131,136.700,181.367
0.504,44.083,6.916,7.088,-17.131,136.739,181.425
0.505,44.148,6.906,7.068,-17.134,136.777,181.478
0.506,44.206,6.899,7.045,-17.142,136.812,181.523
0.508,44.256,6.893,7.021,-17.154,136.844,181.560
0.509,44.298,6.889,6.997,-17.171,136.872,181.585
0.510,44.333,6.887,6.974,-17.192,136.895,181.603
0.511,44.365,6.885,6.953,-17.213,136.916,181.614
0.513,44.394,6.883,6.935,-17.234,136.934,181.623
0.514,44.419,6.881,6.922,-17.250,136.950,181.633
0.515,44.441,6.878,6.914,-17.260,136.964,181.647
0.516,44.466,6.874,6.913,-17.261,136.979,181.667
0.518,44.502,6.866,6.914,-17.251,136.993,181.698
