"T","Distance","Radius","FreeRadius","X","Y","Z"
0.000,0.000,1.513,1.513,-71.783,-50.267,-3.428
0.001,0.119,1.510,1.510,-71.821,-50.154,-3.422
0.002,0.237,1.506,1.506,-71.857,-50.042,-3.415
0.004,0.353,1.503,1.503,-71.891,-49.931,-3.406
0.005,0.468,1.501,1.501,-71.923,-49.822,-3.393
0.006,0.581,1.499,1.499,-71.950,-49.714,-3.377
0.007,0.691,1.498,1.498,-71.972,-49.608,-3.354
0.009,0.798,1.498,1.498,-71.989,-49.506,-3.325
0.010,0.904,1.499,1.499,-71.998,-49.407,-3.288
0.011,1.010,1.502,1.502,-71.998,-49.312,-3.243
0.012,1.117,1.507,1.507,-71.990,-49.221,-3.187
0.014,1.227,1.515,1.515,-71.972,-49.135,-3.121
0.015,1.344,1.527,1.527,-71.942,-49.054,-3.042
0.016,1.469,1.543,1.543,-71.901,-48.978,-2.951
0.017,1.602,1.566,1.566,-71.851,-48.908,-2.850
0.019,1.743,1.595,1.595,-71.792,-48.842,-2.740
0.020,1.891,1.632,1.632,-71.726,-48.780,-2.623
0.021,2.044,1.677,1.677,-71.655,-48.722,-2.501
0.022,2.200,1.729,1.729,-71.580,-48.668,-2.375
0.024,2.357,1.787,1.787,-71.502,-48.616,-2.249
0.025,2.514,1.850,1.850,-71.424,-48.567,-2.122
0.026,2.668,1.917,1.917,-71.347,-48.519,-1.998
0.027,2.817,1.984,1.984,-71.271,-48.474,-1.877
0.029,2.960,2.052,2.052,-71.199,-48.429,-1.762
0.030,3.094,2.118,2.118,-71.133,-48.385,-1.654
0.031,3.219,2.182,2.182,-71.071,-48.342,-1.554
0.032,3.336,2.242,2.242,-71.014,-48.302,-1.461
0.034,3.445,2.299,2.299,-70.960,-48.264,-1.374
0.035,3.547,2.353,2.353,-70.910,-48.229,-1.293
0.036,3.641,2.404,2.404,-70.862,-48.199,-1.216
0.037,3.730,2.451,2.451,-70.816,-48.175,-1.145
0.039,3.814,2.496,2.496,-70.771,-48.156,-1.077
0.040,3.893,2.537,2.537,-70.727,-48.144,-1.012
0.041,3.970,2.576,2.576,-70.682,-48.140,-0.950
0.042,4.045,2.612,2.612,-70.637,-48.144,-0.889
0.044,4.122,2.645,2.645,-70.590,-48.157,-0.831
0.045,4.201,2.676,2.676,-70.542,-48.180,-0.772
0.046,4.283,2.704,2.704,-70.491,-48.211,-0.715
0.047,4.368,2.731,2.731,-70.439,-48.249,-0.659
0.049,4.455,2.755,2.755,-70.386,-48.292,-0.605
0.050,4.544,2.778,2.778,-70.332,-48.338,-0.552
0.051,4.633,2.800,2.800,-70.278,-48.385,-0.500
0.052,4.720,2.820,2.820,-70.224,-48.433,-0.451
0.053,4.805,2.840,2.840,-70.170,-48.478,-0.403
0.055,4.887,2.859,2.859,-70.117,-48.521,-0.358
0.056,4.964,2.878,2.878,-70.064,-48.558,-0.315
0.057,5.036,2.898,2.898,-70.013,-48.588,-0.275
0.058,5.102,2.918,2.918,-69.963,-48.610,-0.238
0.060,5.163,2.939,2.939,-69.915,-48.624,-0.203
0.061,5.221,2.962,2.962,-69.867,-48.629,-0.170
0.062,5.278,2.986,2.986,-69.821,-48.627,-0.137
0.063,5.336,3.013,3.013,-69.774,-48.620,-0.104
0.065,5.396,3.042,3.042,-69.726,-48.608,-0.070
0.066,5.459,3.074,3.074,-69.677,-48.592,-0.034
0.067,5.526,3.110,3.110,-69.626,-48.574,0.006
0.068,5.598,3.149,3.149,-69.572,-48.555,0.050
0.070,5.676,3.193,3.193,-69.515,-48.535,0.099
0.071,5.760,3.242,3.242,-69.455,-48.516,0.155
0.072,5.852,3.296,3.296,-69.391,-48.499,0.218
0.073,5.951,3.353,3.353,-69.321,-48.485,0.288
0.075,6.059,3.414,3.414,-69.248,-48.474,0.366
0.076,6.172,3.476,3.476,-69.171,-48.466,0.449
0.077,6.290,3.540,3.540,-69.093,-48.462,0.537
0.078,6.410,3.603,3.603,-69.013,-48.460,0.626
0.080,6.531,3.666,3.666,-68.932,-48.462,0.716
0.081,6.650,3.727,3.727,-68.853,-48.466,0.805
0.082,6.767,3.785,3.785,-68.775,-48.474,0.892
0.083,6.879,3.840,3.840,-68.700,-48.484,0.974
0.085,6.984,3.892,3.892,-68.629,-48.497,1.051
0.086,7.081,3.939,3.939,-68.563,-48.513,1.120
0.087,7.168,3.981,3.981,-68.503,-48.531,1.180
0.088,7.244,4.019,4.019,-68.449,-48.552,1.229
0.090,7.310,4.051,4.051,-68.401,-48.574,1.269
0.091,7.368,4.077,4.077,-68.358,-48.598,1.300
0.092,7.419,4.097,4.097,-68.320,-48.623,1.322
0.093,7.464,4.111,4.111,-68.286,-48.648,1.338
0.095,7.504,4.119,4.119,-68.256,-48.673,1.346
0.096,7.540,4.122,4.122,-68.228,-48.697,1.349
0.097,7.574,4.120,4.120,-68.203,-48.720,1.347
0.098,7.606,4.114,4.114,-68.179,-48.740,1.342
0.100,7.637,4.104,4.104,-68.157,-48.758,1.332
0.101,7.666,4.091,4.091,-68.134,-48.773,1.321
0.102,7.695,4.075,4.075,-68.111,-48.784,1.307
0.103,7.723,4.058,4.058,-68.088,-48.791,1.293
0.104,7.751,4.040,4.040,-68.064,-48.797,1.280
0.106,7.777,4.023,4.023,-68.040,-48.801,1.269
0.107,7.802,4.010,4.010,-68.017,-48.806,1.262
0.108,7.826,4.001,4.001,-67.994,-48.812,1.260
0.109,7.850,3.998,3.998,-67.972,-48.821,1.264
0.111,7.878,4.003,4.003,-67.952,-48.835,1.276
0.112,7.912,4.017,4.017,-67.932,-48.854,1.298
0.113,7.957,4.039,4.039,-67.915,-48.880,1.330
0.114,8.015,4.068,4.068,-67.900,-48.914,1.374
0.116,8.088,4.102,4.102,-67.887,-48.957,1.432
0.117,8.179,4.141,4.141,-67.877,-49.010,1.504
0.118,8.285,4.182,4.182,-67.869,-49.073,1.590
0.119,8.404,4.223,4.223,-67.863,-49.144,1.686
0.121,8.533,4.264,4.264,-67.859,-49.220,1.790
0.122,8.668,4.303,4.303,-67.855,-49.299,1.899
0.123,8.806,4.338,4.338,-67.852,-49.381,2.010
0.124,8.943,4.370,4.370,-67.849,-49.462,2.121
0.126,9.077,4.399,4.399,-67.846,-49.540,2.228
0.127,9.203,4.425,4.425,-67.842,-49.615,2.331
0.128,9.319,4.447,4.447,-67.836,-49.684,2.424
0.129,9.422,4.466,4.466,-67.829,-49.744,2.507
0.131,9.508,4.481,4.481,-67.819,-49.795,2.575
0.132,9.575,4.493,4.493,-67.806,-49.835,2.628
0.133,9.627,4.501,4.501,-67.791,-49.864,2.668
0.134,9.666,4.505,4.505,-67.774,-49.885,2.696
0.136,9.695,4.507,4.507,-67.755,-49.897,2.715
0.137,9.720,4.505,4.505,-67.734,-49.903,2.726
0.138,9.743,4.502,4.502,-67.711,-49.903,2.733
0.139,9.767,4.495,4.495,-67.688,-49.900,2.737
0.141,9.793,4.487,4.487,-67.663,-49.893,2.740
0.142,9.820,4.477,4.477,-67.638,-49.884,2.744
0.143,9.849,4.466,4.466,-67.612,-49.875,2.753
0.144,9.880,4.454,4.454,-67.586,-49.866,2.767
0.146,9.915,4.441,4.441,-67.560,-49.859,2.790
0.147,9.955,4.428,4.428,-67.535,-49.855,2.821
0.148,10.000,4.415,4.415,-67.510,-49.852,2.858
0.149,10.049,4.404,4.404,-67.486,-49.851,2.900
0.150,10.099,4.393,4.393,-67.463,-49.851,2.945
0.152,10.150,4.385,4.385,-67.442,-49.853,2.992
0.153,10.200,4.379,4.379,-67.422,-49.855,3.037
0.154,10.246,4.374,4.374,-67.405,-49.858,3.080
0.155,10.287,4.371,4.371,-67.390,-49.861,3.118
0.157,10.322,4.370,4.370,-67.378,-49.863,3.150
0.158,10.347,4.369,4.369,-67.369,-49.866,3.174
0.159,10.363,4.368,4.368,-67.363,-49.868,3.188
0.160,10.367,4.368,4.368,-67.361,-49.869,3.191
0.162,10.373,4.367,4.367,-67.360,-49.871,3.185
0.163,10.386,4.366,4.366,-67.360,-49.876,3.173
0.164,10.403,4.364,4.364,-67.359,-49.885,3.159
0.165,10.425,4.361,4.361,-67.353,-49.902,3.146
0.167,10.453,4.355,4.355,-67.343,-49.927,3.138
0.168,10.494,4.347,4.347,-67.324,-49.963,3.139
0.169,10.552,4.336,4.336,-67.297,-50.013,3.151
0.170,10.631,4.321,4.321,-67.258,-50.077,3.178
0.172,10.738,4.302,4.302,-67.206,-50.158,3.224
0.173,10.877,4.279,4.279,-67.140,-50.259,3.293
0.174,11.052,4.253,4.253,-67.056,-50.380,3.388
0.175,11.266,4.227,4.227,-66.955,-50.523,3.509
0.177,11.510,4.202,4.202,-66.839,-50.683,3.653
0.178,11.777,4.181,4.181,-66.714,-50.855,3.814
0.179,12.059,4.167,4.167,-66.582,-51.035,3.987
0.180,12.348,4.160,4.160,-66.448,-51.217,4.167
0.182,12.637,4.164,4.164,-66.315,-51.397,4.349
0.183,12.915,4.179,4.179,-66.186,-51.569,4.527
0.184,13.177,4.205,4.205,-66.067,-51.730,4.695
0.185,13.413,4.237,4.237,-65.960,-51.873,4.850
0.187,13.615,4.273,4.273,-65.870,-51.994,4.985
0.188,13.776,4.310,4.310,-65.800,-52.088,5.095
0.189,13.888,4.343,4.343,-65.754,-52.151,5.175
0.190,13.952,4.371,4.371,-65.731,-52.183,5.226
0.192,13.980,4.389,4.389,-65.726,-52.191,5.252
0.193,13.994,4.394,4.394,-65.734,-52.181,5.259
0.194,14.021,4.389,4.389,-65.749,-52.160,5.252
0.195,14.056,4.377,4.377,-65.767,-52.134,5.237
0.197,14.090,4.362,4.362,-65.783,-52.110,5.219
0.198,14.114,4.348,4.348,-65.790,-52.094,5.203
0.199,14.123,4.339,4.339,-65.785,-52.093,5.195
0.200,14.155,4.340,4.340,-65.762,-52.113,5.200
0.201,14.225,4.354,4.354,-65.715,-52.161,5.224
0.203,14.346,4.385,4.385,-65.640,-52.243,5.271
0.204,14.525,4.433,4.433,-65.532,-52.364,5.346
0.205,14.757,4.497,4.497,-65.395,-52.521,5.447
0.206,15.032,4.575,4.575,-65.233,-52.708,5.570
0.208,15.343,4.663,4.663,-65.051,-52.917,5.710
0.209,15.678,4.760,4.760,-64.855,-53.142,5.862
0.210,16.029,4.865,4.865,-64.650,-53.377,6.022
0.211,16.386,4.973,4.973,-64.441,-53.616,6.186
0.213,16.739,5.084,5.084,-64.233,-53.851,6.349
0.214,17.081,5.196,5.196,-64.031,-54.077,6.507
0.215,17.400,5.305,5.305,-63.840,-54.286,6.655
0.216,17.688,5.411,5.411,-63.667,-54.472,6.788
0.218,17.935,5.512,5.512,-63.514,-54.629,6.903
0.219,18.136,5.604,5.604,-63.387,-54.753,6.997
0.220,18.295,5.687,5.687,-63.282,-54.847,7.071
0.221,18.416,5.759,5.759,-63.199,-54.915,7.127
0.223,18.505,5.817,5.817,-63.133,-54.960,7.166
0.224,18.566,5.861,5.861,-63.083,-54.985,7.191
0.225,18.605,5.892,5.892,-63.048,-54.995,7.203
0.226,18.630,5.914,5.914,-63.023,-54.993,7.205
0.228,18.650,5.927,5.927,-63.008,-54.982,7.197
0.229,18.673,5.935,5.934,-63.000,-54.966,7.183
0.230,18.699,5.938,5.938,-62.996,-54.949,7.163
0.231,18.727,5.939,5.939,-62.994,-54.934,7.140
0.233,18.754,5.940,5.940,-62.992,-54.925,7.115
0.234,18.779,5.943,5.943,-62.989,-54.922,7.090
0.235,18.803,5.947,5.947,-62.985,-54.925,7.066
0.236,18.826,5.951,5.952,-62.979,-54.932,7.046
0.238,18.846,5.956,5.957,-62.972,-54.942,7.030
0.239,18.864,5.961,5.962,-62.963,-54.954,7.020
0.240,18.881,5.966,5.967,-62.951,-54.967,7.018
0.241,18.901,5.971,5.971,-62.938,-54.979,7.026
0.243,18.927,5.974,5.974,-62.922,-54.990,7.043
0.244,18.963,5.977,5.977,-62.903,-54.997,7.074
0.245,19.012,5.979,5.978,-62.882,-55.001,7.118
0.246,19.076,5.982,5.981,-62.858,-54.999,7.177
0.248,19.156,5.986,5.984,-62.831,-54.991,7.252
0.249,19.252,5.992,5.990,-62.802,-54.977,7.343
0.250,19.361,6.000,5.998,-62.772,-54.959,7.445
0.251,19.479,6.012,6.011,-62.742,-54.938,7.558
0.252,19.605,6.028,6.028,-62.712,-54.915,7.679
0.254,19.736,6.048,6.050,-62.684,-54.892,7.805
0.255,19.870,6.073,6.076,-62.659,-54.869,7.933
0.256,20.002,6.100,6.105,-62.638,-54.849,8.063
0.257,20.132,6.128,6.135,-62.622,-54.831,8.190
0.259,20.257,6.157,6.164,-62.611,-54.818,8.314
0.260,20.374,6.185,6.191,-62.608,-54.810,8.431
0.261,20.482,6.211,6.215,-62.612,-54.809,8.539
0.262,20.581,6.233,6.234,-62.623,-54.815,8.637
0.264,20.673,6.251,6.246,-62.639,-54.827,8.726
0.265,20.759,6.264,6.252,-62.656,-54.842,8.809
0.266,20.840,6.273,6.255,-62.670,-54.859,8.887
0.267,20.917,6.277,6.254,-62.680,-54.877,8.962
0.269,20.992,6.277,6.252,-62.681,-54.892,9.035
0.270,21.067,6.274,6.250,-62.670,-54.904,9.108
0.271,21.147,6.266,6.248,-62.644,-54.910,9.183
0.272,21.237,6.255,6.250,-62.600,-54.910,9.262
0.274,21.345,6.240,6.255,-62.534,-54.900,9.347
0.275,21.475,6.221,6.263,-62.443,-54.879,9.438
0.276,21.634,6.200,6.271,-62.325,-54.846,9.539
0.277,21.820,6.175,6.277,-62.181,-54.801,9.647
0.279,22.029,6.147,6.278,-62.015,-54.746,9.762
0.280,22.255,6.116,6.273,-61.832,-54.682,9.880
0.281,22.494,6.082,6.258,-61.639,-54.613,10.001
0.282,22.739,6.045,6.232,-61.439,-54.541,10.121
0.284,22.984,6.006,6.192,-61.237,-54.466,10.239
0.285,23.224,5.965,6.139,-61.039,-54.392,10.353
0.286,23.454,5.923,6.078,-60.849,-54.320,10.460
0.287,23.667,5.883,6.012,-60.672,-54.253,10.558
0.289,23.857,5.845,5.945,-60.514,-54.193,10.646
0.290,24.020,5.812,5.880,-60.379,-54.141,10.720
0.291,24.151,5.784,5.822,-60.270,-54.100,10.780
0.292,24.251,5.763,5.775,-60.187,-54.069,10.827
0.294,24.324,5.751,5.741,-60.126,-54.048,10.862
0.295,24.376,5.747,5.723,-60.083,-54.036,10.887
0.296,24.409,5.749,5.716,-60.054,-54.034,10.904
0.297,24.430,5.756,5.719,-60.037,-54.041,10.915
0.299,24.449,5.764,5.728,-60.027,-54.055,10.921
0.300,24.472,5.772,5.742,-60.021,-54.078,10.924
0.301,24.503,5.778,5.757,-60.017,-54.108,10.926
0.302,24.540,5.779,5.770,-60.010,-54.145,10.929
0.303,24.586,5.774,5.779,-59.996,-54.188,10.934
0.305,24.641,5.761,5.782,-59.973,-54.237,10.944
0.306,24.707,5.741,5.780,-59.939,-54.292,10.959
0.307,24.783,5.716,5.773,-59.896,-54.351,10.978
0.308,24.867,5.686,5.761,-59.844,-54.413,11.001
0.310,24.957,5.651,5.744,-59.786,-54.477,11.027
0.311,25.051,5.614,5.724,-59.724,-54.541,11.056
0.312,25.148,5.575,5.700,-59.659,-54.606,11.086
0.313,25.244,5.535,5.672,-59.592,-54.668,11.117
0.315,25.338,5.494,5.641,-59.527,-54.729,11.147
0.316,25.427,5.454,5.609,-59.464,-54.785,11.177
0.317,25.510,5.415,5.576,-59.406,-54.836,11.206
0.318,25.584,5.378,5.544,-59.354,-54.881,11.232
0.320,25.647,5.344,5.512,-59.309,-54.919,11.255
0.321,25.700,5.312,5.484,-59.272,-54.951,11.275
0.322,25.743,5.285,5.459,-59.241,-54.976,11.293
0.323,25.780,5.262,5.439,-59.215,-54.997,11.310
0.325,25.812,5.245,5.424,-59.193,-55.014,11.325
0.326,25.841,5.231,5.412,-59.174,-55.029,11.341
0.327,25.869,5.221,5.403,-59.156,-55.042,11.357
0.328,25.897,5.213,5.395,-59.138,-55.056,11.374
0.330,25.928,5.205,5.386,-59.118,-55.071,11.393
0.331,25.963,5.198,5.375,-59.097,-55.088,11.414
0.332,26.004,5.189,5.359,-59.071,-55.109,11.438
0.333,26.053,5.178,5.338,-59.041,-55.134,11.467
0.335,26.110,5.164,5.310,-59.004,-55.164,11.499
0.336,26.175,5.147,5.277,-58.963,-55.199,11.535
0.337,26.245,5.128,5.239,-58.918,-55.236,11.574
0.338,26.318,5.108,5.199,-58.871,-55.275,11.614
0.340,26.392,5.087,5.158,-58.823,-55.315,11.654
0.341,26.464,5.065,5.118,-58.775,-55.353,11.693
0.342,26.533,5.043,5.079,-58.730,-55.388,11.731
0.343,26.596,5.022,5.045,-58.687,-55.419,11.766
0.345,26.652,5.003,5.016,-58.649,-55.445,11.797
0.346,26.697,4.985,4.992,-58.617,-55.463,11.823
0.347,26.731,4.969,4.972,-58.592,-55.474,11.843
0.348,26.752,4.956,4.957,-58.576,-55.475,11.856
0.350,26.765,4.946,4.946,-58.568,-55.466,11.862
0.351,26.780,4.938,4.939,-58.567,-55.451,11.863
0.352,26.800,4.934,4.935,-58.571,-55.433,11.860
0.353,26.820,4.934,4.934,-58.577,-55.414,11.855
0.354,26.839,4.937,4.935,-58.585,-55.397,11.849
0.356,26.853,4.943,4.938,-58.591,-55.386,11.844
0.357,26.858,4.949,4.940,-58.595,-55.384,11.842
0.358,26.867,4.952,4.940,-58.593,-55.393,11.845
0.359,26.894,4.950,4.936,-58.585,-55.417,11.853
0.361,26.941,4.941,4.928,-58.567,-55.458,11.869
0.362,27.014,4.923,4.912,-58.539,-55.520,11.894
0.363,27.115,4.892,4.888,-58.498,-55.606,11.929
0.364,27.244,4.847,4.855,-58.445,-55.713,11.976
0.366,27.397,4.788,4.812,-58.381,-55.839,12.033
0.367,27.570,4.720,4.761,-58.308,-55.981,12.100
0.368,27.759,4.644,4.704,-58.227,-56.135,12.177
0.369,27.962,4.565,4.642,-58.140,-56.297,12.263
0.371,28.175,4.486,4.579,-58.049,-56.464,12.358
0.372,28.394,4.409,4.514,-57.955,-56.632,12.460
0.373,28.615,4.338,4.450,-57.860,-56.799,12.571
0.374,28.837,4.277,4.388,-57.765,-56.961,12.688
0.376,29.055,4.225,4.329,-57.671,-57.114,12.813
0.377,29.267,4.182,4.274,-57.581,-57.255,12.943
0.378,29.472,4.146,4.222,-57.496,-57.382,13.080
0.379,29.671,4.115,4.173,-57.415,-57.496,13.222
0.381,29.867,4.087,4.127,-57.338,-57.600,13.368
0.382,30.060,4.061,4.084,-57.263,-57.697,13.518
0.383,30.254,4.036,4.044,-57.191,-57.789,13.672
0.384,30.448,4.010,4.006,-57.120,-57.879,13.829
0.386,30.644,3.983,3.972,-57.051,-57.970,13.988
0.387,30.844,3.957,3.944,-56.981,-58.065,14.149
0.388,31.047,3.935,3.922,-56.911,-58.165,14.312
0.389,31.255,3.921,3.910,-56.840,-58.274,14.474
0.391,31.470,3.916,3.909,-56.768,-58.395,14.637
0.392,31.694,3.924,3.920,-56.693,-58.530,14.800
0.393,31.927,3.947,3.945,-56.616,-58.678,14.961
0.394,32.165,3.987,3.987,-56.538,-58.838,15.119
0.396,32.406,4.046,4.046,-56.460,-59.006,15.275
0.397,32.648,4.119,4.117,-56.384,-59.179,15.425
0.398,32.886,4.203,4.198,-56.310,-59.352,15.571
0.399,33.118,4.291,4.285,-56.240,-59.524,15.709
0.400,33.340,4.381,4.373,-56.175,-59.691,15.840
0.402,33.548,4.468,4.460,-56.116,-59.849,15.963
0.403,33.740,4.547,4.542,-56.065,-59.995,16.075
0.404,33.911,4.614,4.616,-56.022,-60.127,16.177
0.405,34.060,4.667,4.677,-55.990,-60.240,16.267
0.407,34.182,4.707,4.728,-55.968,-60.332,16.344
0.408,34.280,4.735,4.769,-55.956,-60.404,16.410
0.409,34.360,4.754,4.802,-55.952,-60.459,16.468
0.410,34.427,4.767,4.826,-55.954,-60.499,16.522
0.412,34.487,4.774,4.843,-55.958,-60.528,16.574
0.413,34.545,4.779,4.855,-55.964,-60.548,16.628
0.414,34.606,4.783,4.861,-55.969,-60.562,16.687
0.415,34.673,4.788,4.863,-55.971,-60.573,16.754
0.417,34.752,4.796,4.864,-55.968,-60.584,16.831
0.418,34.845,4.806,4.865,-55.957,-60.598,16.923
0.419,34.958,4.821,4.867,-55.936,-60.617,17.033
0.420,35.095,4.841,4.874,-55.904,-60.646,17.162
0.422,35.258,4.867,4.887,-55.859,-60.684,17.314
0.423,35.445,4.899,4.909,-55.801,-60.733,17.485
0.424,35.651,4.940,4.941,-55.734,-60.789,17.672
0.425,35.873,4.989,4.985,-55.660,-60.853,17.871
0.427,36.105,5.046,5.039,-55.579,-60.921,18.077
0.428,36.343,5.108,5.101,-55.494,-60.994,18.288
0.429,36.584,5.175,5.169,-55.407,-61.070,18.499
0.430,36.822,5.244,5.241,-55.321,-61.147,18.707
0.432,37.053,5.314,5.313,-55.236,-61.224,18.907
0.433,37.272,5.383,5.384,-55.155,-61.299,19.097
0.434,37.477,5.450,5.450,-55.080,-61.372,19.272
0.435,37.661,5.513,5.511,-55.012,-61.440,19.430
0.437,37.823,5.572,5.566,-54.953,-61.503,19.567
0.438,37.965,5.625,5.615,-54.901,-61.561,19.686
0.439,38.089,5.673,5.659,-54.857,-61.615,19.789
0.440,38.197,5.716,5.699,-54.819,-61.665,19.876
0.442,38.290,5.752,5.735,-54.787,-61.711,19.950
0.443,38.370,5.782,5.769,-54.760,-61.754,20.012
0.444,38.438,5.804,5.800,-54.738,-61.793,20.064
0.445,38.498,5.820,5.830,-54.719,-61.829,20.107
0.447,38.549,5.829,5.859,-54.704,-61.863,20.143
0.448,38.594,5.833,5.886,-54.690,-61.894,20.173
0.449,38.635,5.834,5.911,-54.679,-61.923,20.199
0.450,38.672,5.834,5.934,-54.669,-61.950,20.222
0.451,38.707,5.834,5.954,-54.659,-61.976,20.244
0.453,38.741,5.836,5.972,-54.648,-61.999,20.265
0.454,38.774,5.841,5.987,-54.635,-62.021,20.287
0.455,38.807,5.851,5.999,-54.620,-62.042,20.308
0.456,38.842,5.866,6.009,-54.602,-62.060,20.332
0.458,38.880,5.884,6.015,-54.579,-62.077,20.357
0.459,38.923,5.906,6.020,-54.552,-62.092,20.386
0.460,38.972,5.928,6.023,-54.518,-62.106,20.418
0.461,39.028,5.950,6.024,-54.477,-62.118,20.455
0.463,39.094,5.971,6.025,-54.428,-62.129,20.497
0.464,39.169,5.989,6.025,-54.370,-62.138,20.545
0.465,39.256,6.003,6.026,-54.303,-62.146,20.599
0.466,39.352,6.014,6.026,-54.228,-62.154,20.659
0.468,39.456,6.021,6.028,-54.147,-62.165,20.722
0.469,39.566,6.027,6.031,-54.060,-62.179,20.789
0.470,39.680,6.034,6.037,-53.971,-62.199,20.857
0.471,39.798,6.042,6.045,-53.879,-62.226,20.926
0.473,39.918,6.053,6.056,-53.786,-62.263,20.993
0.474,40.040,6.070,6.071,-53.695,-62.310,21.059
0.475,40.165,6.092,6.091,-53.606,-62.370,21.122
0.476,40.292,6.121,6.115,-53.521,-62.444,21.181
0.478,40.423,6.155,6.143,-53.442,-62.534,21.234
0.479,40.561,6.192,6.175,-53.369,-62.641,21.280
0.480,40.706,6.233,6.211,-53.304,-62.766,21.319
0.481,40.859,6.273,6.251,-53.246,-62.903,21.352
0.483,41.017,6.314,6.294,-53.195,-63.051,21.378
0.484,41.179,6.352,6.341,-53.151,-63.205,21.400
0.485,41.340,6.387,6.390,-53.113,-63.361,21.417
0.486,41.499,6.417,6.441,-53.082,-63.516,21.431
0.488,41.652,6.443,6.494,-53.056,-63.667,21.441
0.489,41.797,6.465,6.545,-53.036,-63.809,21.448
0.490,41.928,6.484,6.594,-53.022,-63.940,21.454
0.491,42.044,6.499,6.639,-53.013,-64.056,21.458
0.493,42.141,6.512,6.679,-53.008,-64.152,21.461
0.494,42.216,6.523,6.712,-53.008,-64.227,21.464
0.495,42.272,6.533,6.736,-53.011,-64.283,21.469
0.496,42.313,6.541,6.750,-53.016,-64.323,21.475
0.498,42.343,6.548,6.757,-53.021,-64.351,21.483
0.499,42.368,6.554,6.757,-53.025,-64.373,21.495
0.500,42.392,6.561,6.753,-53.026,-64.391,21.511
0.501,42.421,6.568,6.746,-53.022,-64.410,21.533
0.502,42.459,6.575,6.740,-53.012,-64.434,21.560
0.504,42.511,6.584,6.734,-52.994,-64.468,21.595
0.505,42.580,6.594,6.732,-52.967,-64.515,21.638
0.506,42.670,6.606,6.735,-52.929,-64.580,21.689
0.507,42.787,6.620,6.742,-52.879,-64.666,21.750
0.509,42.932,6.634,6.752,-52.816,-64.775,21.821
0.510,43.101,6.650,6.766,-52.742,-64.905,21.899
0.511,43.288,6.665,6.781,-52.659,-65.050,21.984
0.512,43.488,6.680,6.797,-52.570,-65.206,22.072
0.514,43.696,6.694,6.813,-52.476,-65.369,22.161
0.515,43.907,6.707,6.828,-52.380,-65.535,22.250
0.516,44.115,6.718,6.842,-52.285,-65.698,22.336
0.517,44.315,6.727,6.853,-52.191,-65.855,22.418
0.519,44.502,6.735,6.862,-52.102,-66.001,22.492
0.520,44.670,6.743,6.869,-52.020,-66.133,22.557
0.521,44.814,6.750,6.873,-51.946,-66.244,22.611
0.522,44.930,6.758,6.875,-51.884,-66.332,22.652
