"T","Distance","Radius","FreeRadius","X","Y","Z"
0.000,0.000,3.215,3.215,181.677,216.120,202.702
0.001,0.369,3.323,3.323,181.833,216.130,202.368
0.003,0.734,3.431,3.431,181.987,216.141,202.037
0.004,1.092,3.534,3.534,182.139,216.154,201.712
0.005,1.440,3.633,3.633,182.286,216.171,201.397
0.006,1.774,3.725,3.725,182.428,216.191,201.095
0.008,2.092,3.808,3.808,182.562,216.217,200.809
0.009,2.389,3.881,3.881,182.688,216.249,200.542
0.010,2.663,3.942,3.942,182.804,216.288,200.296
0.012,2.911,3.991,3.991,182.909,216.336,200.077
0.013,3.131,4.029,4.029,183.001,216.393,199.886
0.014,3.320,4.059,4.059,183.078,216.461,199.726
0.015,3.481,4.084,4.084,183.141,216.540,199.601
0.017,3.618,4.106,4.106,183.188,216.628,199.507
0.018,3.740,4.127,4.127,183.221,216.725,199.441
0.019,3.853,4.152,4.152,183.241,216.827,199.396
0.020,3.962,4.181,4.181,183.249,216.932,199.369
0.022,4.070,4.217,4.217,183.245,217.038,199.354
0.023,4.176,4.256,4.256,183.231,217.143,199.347
0.024,4.281,4.297,4.297,183.207,217.246,199.344
0.026,4.383,4.337,4.337,183.175,217.342,199.339
0.027,4.481,4.373,4.373,183.135,217.431,199.328
0.028,4.576,4.403,4.403,183.088,217.511,199.306
0.029,4.669,4.423,4.423,183.036,217.578,199.268
0.031,4.765,4.432,4.432,182.979,217.634,199.216
0.032,4.865,4.429,4.429,182.918,217.679,199.150
0.033,4.970,4.415,4.415,182.855,217.714,199.074
0.035,5.079,4.394,4.394,182.790,217.742,198.991
0.036,5.189,4.367,4.367,182.726,217.762,198.904
0.037,5.300,4.337,4.337,182.663,217.776,198.814
0.038,5.408,4.306,4.306,182.602,217.786,198.725
0.040,5.511,4.277,4.277,182.545,217.793,198.639
0.041,5.606,4.252,4.252,182.493,217.798,198.560
0.042,5.690,4.233,4.233,182.447,217.801,198.490
0.043,5.761,4.218,4.218,182.408,217.806,198.431
0.045,5.818,4.208,4.208,182.376,217.811,198.384
0.046,5.862,4.201,4.201,182.351,217.816,198.348
0.047,5.894,4.198,4.198,182.332,217.822,198.323
0.049,5.917,4.197,4.197,182.318,217.828,198.306
0.050,5.932,4.197,4.197,182.309,217.834,198.296
0.051,5.941,4.200,4.200,182.303,217.839,198.292
0.052,5.946,4.203,4.203,182.300,217.844,198.294
0.054,5.953,4.207,4.207,182.299,217.848,198.299
0.055,5.961,4.211,4.211,182.300,217.851,198.307
0.056,5.970,4.214,4.214,182.301,217.852,198.315
0.058,5.979,4.218,4.218,182.303,217.851,198.324
0.059,5.987,4.221,4.221,182.303,217.848,198.332
0.060,5.993,4.223,4.223,182.302,217.845,198.337
0.061,5.999,4.223,4.223,182.299,217.841,198.339
0.063,6.007,4.222,4.222,182.293,217.836,198.337
0.064,6.020,4.219,4.219,182.283,217.832,198.330
0.065,6.040,4.214,4.214,182.269,217.829,198.316
0.066,6.068,4.206,4.206,182.249,217.827,198.296
0.068,6.107,4.197,4.197,182.225,217.828,198.266
0.069,6.156,4.184,4.184,182.193,217.831,198.228
0.070,6.219,4.169,4.169,182.155,217.837,198.179
0.072,6.296,4.151,4.151,182.109,217.847,198.118
0.073,6.387,4.130,4.130,182.054,217.861,198.046
0.074,6.491,4.108,4.108,181.993,217.878,197.964
0.075,6.605,4.085,4.085,181.926,217.898,197.874
0.077,6.728,4.063,4.063,181.854,217.921,197.777
0.078,6.857,4.041,4.041,181.778,217.945,197.676
0.079,6.989,4.022,4.022,181.701,217.971,197.571
0.081,7.123,4.007,4.007,181.622,217.997,197.467
0.082,7.256,3.995,3.995,181.543,218.023,197.363
0.083,7.386,3.987,3.987,181.465,218.049,197.262
0.084,7.511,3.982,3.982,181.389,218.074,197.165
0.086,7.629,3.979,3.979,181.317,218.097,197.076
0.087,7.737,3.978,3.978,181.249,218.118,196.994
0.088,7.836,3.978,3.978,181.186,218.137,196.920
0.090,7.928,3.978,3.978,181.126,218.154,196.853
0.091,8.013,3.977,3.977,181.068,218.169,196.792
0.092,8.092,3.975,3.975,181.013,218.184,196.736
0.093,8.167,3.972,3.972,180.960,218.197,196.685
0.095,8.239,3.968,3.968,180.908,218.209,196.637
0.096,8.309,3.963,3.963,180.857,218.221,196.592
0.097,8.377,3.957,3.957,180.805,218.232,196.549
0.098,8.445,3.952,3.952,180.752,218.243,196.506
0.100,8.514,3.946,3.946,180.699,218.254,196.464
0.101,8.585,3.941,3.941,180.643,218.265,196.422
0.102,8.657,3.936,3.936,180.586,218.276,196.379
0.104,8.729,3.931,3.931,180.530,218.288,196.337
0.105,8.799,3.927,3.927,180.474,218.299,196.297
0.106,8.866,3.923,3.923,180.420,218.309,196.258
0.107,8.929,3.919,3.919,180.369,218.319,196.222
0.109,8.986,3.916,3.916,180.323,218.329,196.191
0.110,9.036,3.914,3.914,180.282,218.337,196.163
0.111,9.077,3.911,3.911,180.247,218.344,196.141
0.113,9.109,3.909,3.909,180.220,218.349,196.125
0.114,9.130,3.908,3.908,180.201,218.353,196.116
0.115,9.140,3.905,3.905,180.192,218.355,196.115
0.116,9.145,3.903,3.903,180.191,218.356,196.119
0.118,9.154,3.899,3.899,180.195,218.356,196.127
0.119,9.165,3.895,3.895,180.201,218.357,196.136
0.120,9.174,3.889,3.889,180.206,218.359,196.143
0.121,9.179,3.881,3.881,180.207,218.363,196.146
0.123,9.190,3.871,3.871,180.201,218.371,196.142
0.124,9.214,3.862,3.862,180.184,218.382,196.128
0.125,9.257,3.854,3.854,180.155,218.398,196.102
0.127,9.322,3.848,3.848,180.109,218.420,196.060
0.128,9.414,3.846,3.846,180.044,218.449,196.001
0.129,9.538,3.850,3.850,179.957,218.485,195.922
0.130,9.691,3.861,3.861,179.848,218.529,195.823
0.132,9.870,3.881,3.881,179.721,218.577,195.707
0.133,10.069,3.908,3.908,179.579,218.630,195.579
0.134,10.281,3.942,3.942,179.426,218.686,195.442
0.136,10.502,3.978,3.978,179.267,218.742,195.300
0.137,10.725,4.015,4.015,179.104,218.797,195.157
0.138,10.946,4.050,4.050,178.943,218.850,195.016
0.139,11.158,4.079,4.079,178.786,218.899,194.882
0.141,11.356,4.102,4.102,178.638,218.942,194.757
0.142,11.534,4.113,4.113,178.503,218.978,194.647
0.143,11.688,4.115,4.115,178.383,219.005,194.554
0.145,11.814,4.108,4.108,178.282,219.023,194.480
0.146,11.918,4.096,4.096,178.198,219.036,194.421
0.147,12.004,4.082,4.082,178.129,219.047,194.371
0.148,12.076,4.069,4.069,178.073,219.059,194.328
0.150,12.139,4.060,4.060,178.029,219.076,194.286
0.151,12.201,4.057,4.057,177.994,219.101,194.241
0.152,12.271,4.063,4.063,177.967,219.138,194.189
0.153,12.357,4.079,4.079,177.946,219.191,194.124
0.155,12.465,4.103,4.104,177.929,219.262,194.044
0.156,12.604,4.136,4.136,177.915,219.355,193.943
0.157,12.778,4.175,4.175,177.902,219.475,193.816
0.159,12.991,4.219,4.219,177.888,219.621,193.663
0.160,13.235,4.267,4.267,177.874,219.790,193.487
0.161,13.502,4.318,4.318,177.860,219.975,193.295
0.162,13.784,4.370,4.370,177.847,220.170,193.092
0.164,14.072,4.422,4.422,177.836,220.369,192.884
0.165,14.358,4.473,4.473,177.827,220.567,192.678
0.166,14.633,4.522,4.521,177.821,220.757,192.479
0.168,14.890,4.566,4.565,177.818,220.933,192.293
0.169,15.119,4.604,4.604,177.819,221.090,192.125
0.170,15.313,4.636,4.635,177.825,221.221,191.983
0.171,15.463,4.659,4.659,177.835,221.321,191.871
0.173,15.564,4.672,4.672,177.852,221.385,191.795
0.174,15.622,4.676,4.677,177.872,221.417,191.750
0.175,15.652,4.673,4.675,177.893,221.424,191.730
0.176,15.676,4.666,4.668,177.914,221.412,191.730
0.178,15.710,4.655,4.658,177.931,221.387,191.744
0.179,15.749,4.644,4.646,177.944,221.356,191.766
0.180,15.788,4.633,4.635,177.949,221.326,191.789
0.182,15.819,4.626,4.627,177.944,221.302,191.809
0.183,15.841,4.624,4.623,177.928,221.291,191.818
0.184,15.874,4.628,4.623,177.897,221.300,191.812
0.185,15.938,4.635,4.628,177.850,221.335,191.784
0.187,16.046,4.647,4.638,177.785,221.401,191.729
0.188,16.195,4.662,4.652,177.704,221.497,191.649
0.189,16.378,4.680,4.670,177.609,221.616,191.549
0.191,16.586,4.700,4.694,177.505,221.754,191.433
0.192,16.811,4.722,4.721,177.394,221.905,191.307
0.193,17.046,4.744,4.753,177.279,222.062,191.176
0.194,17.282,4.768,4.787,177.165,222.221,191.045
0.196,17.511,4.792,4.824,177.053,222.375,190.918
0.197,17.724,4.816,4.860,176.949,222.520,190.800
0.198,17.914,4.839,4.896,176.854,222.649,190.697
0.199,18.073,4.862,4.929,176.773,222.756,190.613
0.201,18.193,4.884,4.957,176.708,222.837,190.554
0.202,18.274,4.905,4.981,176.659,222.892,190.518
0.203,18.322,4.925,4.998,176.627,222.923,190.502
0.205,18.345,4.942,5.009,176.607,222.935,190.501
0.206,18.358,4.957,5.014,176.600,222.932,190.512
0.207,18.382,4.969,5.015,176.604,222.917,190.530
0.208,18.416,4.977,5.011,176.616,222.894,190.552
0.210,18.455,4.982,5.004,176.636,222.867,190.572
0.211,18.495,4.983,4.993,176.661,222.840,190.587
0.212,18.533,4.979,4.981,176.691,222.817,190.593
0.214,18.570,4.970,4.966,176.723,222.801,190.586
0.215,18.611,4.957,4.949,176.756,222.796,190.560
0.216,18.667,4.940,4.931,176.789,222.805,190.516
0.217,18.740,4.919,4.911,176.822,222.827,190.456
0.219,18.830,4.896,4.889,176.854,222.864,190.380
0.220,18.936,4.870,4.866,176.886,222.915,190.293
0.221,19.057,4.843,4.841,176.916,222.981,190.195
0.223,19.194,4.814,4.814,176.945,223.062,190.090
0.224,19.343,4.784,4.786,176.972,223.158,189.978
0.225,19.506,4.754,4.757,176.997,223.271,189.864
0.226,19.680,4.723,4.727,177.020,223.399,189.748
0.228,19.865,4.692,4.696,177.040,223.543,189.633
0.229,20.062,4.661,4.664,177.058,223.704,189.521
0.230,20.269,4.630,4.632,177.072,223.881,189.415
0.231,20.483,4.599,4.600,177.084,224.069,189.314
0.233,20.700,4.569,4.569,177.093,224.264,189.219
0.234,20.916,4.540,4.538,177.099,224.461,189.130
0.235,21.128,4.512,4.508,177.102,224.657,189.049
0.237,21.332,4.487,4.481,177.102,224.847,188.976
0.238,21.523,4.463,4.458,177.101,225.026,188.911
0.239,21.696,4.443,4.438,177.096,225.191,188.854
0.240,21.849,4.427,4.423,177.089,225.336,188.807
0.242,21.977,4.416,4.414,177.080,225.457,188.770
0.243,22.075,4.409,4.411,177.069,225.551,188.742
0.244,22.142,4.407,4.414,177.056,225.614,188.726
0.246,22.184,4.407,4.421,177.041,225.654,188.717
0.247,22.212,4.409,4.430,177.026,225.676,188.716
0.248,22.232,4.410,4.437,177.011,225.689,188.719
0.249,22.250,4.409,4.442,176.997,225.700,188.725
0.251,22.271,4.404,4.441,176.985,225.715,188.731
0.252,22.300,4.393,4.433,176.975,225.743,188.736
0.253,22.348,4.375,4.414,176.969,225.790,188.738
0.254,22.421,4.350,4.387,176.967,225.863,188.734
0.256,22.529,4.322,4.354,176.969,225.971,188.722
0.257,22.680,4.293,4.320,176.978,226.119,188.702
0.258,22.878,4.268,4.289,176.992,226.314,188.670
0.260,23.119,4.250,4.264,177.012,226.552,188.631
0.261,23.396,4.242,4.249,177.035,226.824,188.586
0.262,23.701,4.247,4.248,177.060,227.124,188.540
0.263,24.025,4.268,4.266,177.086,227.445,188.496
0.265,24.362,4.304,4.300,177.110,227.778,188.458
0.266,24.704,4.352,4.347,177.132,228.118,188.429
0.267,25.042,4.408,4.403,177.149,228.456,188.413
0.269,25.372,4.468,4.464,177.161,228.785,188.413
0.270,25.686,4.529,4.526,177.165,229.098,188.433
0.271,25.979,4.586,4.584,177.161,229.388,188.477
0.272,26.248,4.636,4.635,177.146,229.648,188.546
0.274,26.497,4.675,4.676,177.121,229.876,188.640
0.275,26.729,4.704,4.705,177.089,230.076,188.754
0.276,26.948,4.723,4.725,177.050,230.250,188.883
0.277,27.157,4.735,4.737,177.007,230.398,189.023
0.279,27.355,4.741,4.743,176.961,230.524,189.169
0.280,27.543,4.743,4.744,176.914,230.630,189.318
0.281,27.719,4.742,4.743,176.868,230.717,189.463
0.283,27.881,4.740,4.740,176.823,230.788,189.601
0.284,28.026,4.739,4.738,176.783,230.846,189.728
0.285,28.150,4.740,4.738,176.749,230.891,189.839
0.286,28.250,4.741,4.738,176.722,230.927,189.929
0.288,28.327,4.744,4.741,176.703,230.954,189.997
0.289,28.383,4.749,4.745,176.690,230.976,190.047
0.290,28.422,4.756,4.752,176.681,230.993,190.081
0.292,28.446,4.764,4.762,176.677,231.007,190.101
0.293,28.462,4.775,4.775,176.675,231.020,190.109
0.294,28.475,4.789,4.791,176.674,231.033,190.109
0.295,28.492,4.804,4.810,176.674,231.049,190.102
0.297,28.515,4.820,4.831,176.672,231.068,190.090
0.298,28.543,4.836,4.851,176.668,231.093,190.078
0.299,28.578,4.852,4.871,176.660,231.125,190.066
0.301,28.622,4.866,4.889,176.648,231.166,190.057
0.302,28.675,4.879,4.904,176.630,231.216,190.053
0.303,28.737,4.889,4.915,176.607,231.273,190.052
0.304,28.804,4.895,4.921,176.581,231.335,190.053
0.306,28.875,4.898,4.922,176.551,231.400,190.055
0.307,28.948,4.897,4.920,176.519,231.465,190.058
0.308,29.021,4.892,4.915,176.484,231.530,190.059
0.309,29.092,4.884,4.907,176.449,231.590,190.058
0.311,29.158,4.871,4.897,176.413,231.646,190.054
0.312,29.218,4.853,4.886,176.377,231.693,190.046
0.313,29.271,4.831,4.875,176.342,231.731,190.033
0.315,29.318,4.805,4.864,176.309,231.757,190.014
0.316,29.361,4.776,4.853,176.278,231.772,189.988
0.317,29.403,4.746,4.841,176.249,231.776,189.957
0.318,29.445,4.716,4.829,176.223,231.775,189.923
0.320,29.486,4.687,4.816,176.201,231.771,189.889
0.321,29.524,4.661,4.803,176.182,231.767,189.856
0.322,29.558,4.640,4.788,176.167,231.767,189.827
0.324,29.585,4.625,4.772,176.156,231.774,189.802
0.325,29.611,4.617,4.754,176.150,231.792,189.785
0.326,29.643,4.615,4.736,176.148,231.823,189.778
0.327,29.691,4.616,4.717,176.152,231.871,189.781
0.329,29.761,4.622,4.700,176.161,231.939,189.798
0.330,29.858,4.629,4.683,176.176,232.029,189.829
0.331,29.978,4.637,4.668,176.195,232.139,189.871
0.332,30.117,4.644,4.655,176.216,232.268,189.922
0.334,30.273,4.649,4.645,176.237,232.411,189.979
0.335,30.441,4.652,4.638,176.257,232.567,190.037
0.336,30.618,4.653,4.634,176.272,232.734,190.094
0.338,30.799,4.651,4.630,176.283,232.907,190.147
0.339,30.983,4.646,4.628,176.286,233.086,190.192
0.340,31.167,4.638,4.625,176.280,233.266,190.226
0.341,31.349,4.628,4.621,176.262,233.447,190.246
0.343,31.529,4.616,4.614,176.232,233.624,190.248
0.344,31.708,4.600,4.605,176.188,233.796,190.231
0.345,31.886,4.582,4.594,176.131,233.960,190.195
0.347,32.063,4.563,4.579,176.064,234.117,190.145
0.348,32.240,4.543,4.563,175.990,234.265,190.083
0.349,32.413,4.523,4.546,175.912,234.402,190.012
0.350,32.580,4.504,4.528,175.833,234.528,189.935
0.352,32.737,4.486,4.511,175.755,234.641,189.857
0.353,32.883,4.471,4.494,175.682,234.740,189.780
0.354,33.013,4.458,4.479,175.616,234.824,189.707
0.355,33.123,4.449,4.466,175.560,234.892,189.641
0.357,33.209,4.442,4.453,175.517,234.943,189.586
0.358,33.269,4.436,4.442,175.489,234.976,189.544
0.359,33.307,4.430,4.432,175.474,234.994,189.515
0.361,33.330,4.424,4.422,175.467,235.001,189.494
0.362,33.346,4.415,4.413,175.465,235.003,189.478
0.363,33.362,4.404,4.403,175.462,235.003,189.462
0.364,33.382,4.390,4.393,175.454,235.008,189.444
0.366,33.416,4.374,4.384,175.436,235.021,189.419
0.367,33.470,4.359,4.379,175.404,235.047,189.384
0.368,33.554,4.349,4.379,175.353,235.091,189.335
0.370,33.674,4.346,4.387,175.278,235.159,189.269
0.371,33.840,4.354,4.404,175.175,235.254,189.181
0.372,34.058,4.376,4.434,175.039,235.381,189.068
0.373,34.325,4.414,4.478,174.873,235.539,188.930
0.375,34.634,4.473,4.539,174.681,235.723,188.774
0.376,34.972,4.549,4.614,174.471,235.926,188.602
0.377,35.332,4.638,4.700,174.248,236.142,188.421
0.379,35.702,4.735,4.794,174.019,236.366,188.235
0.380,36.072,4.835,4.892,173.791,236.590,188.049
0.381,36.433,4.933,4.991,173.569,236.810,187.867
0.382,36.774,5.024,5.087,173.361,237.018,187.695
0.384,37.086,5.104,5.176,173.172,237.210,187.537
0.385,37.359,5.168,5.255,173.009,237.379,187.398
0.386,37.582,5.218,5.324,172.878,237.518,187.283
0.387,37.753,5.254,5.383,172.782,237.627,187.194
0.389,37.876,5.280,5.431,172.716,237.707,187.128
0.390,37.958,5.297,5.469,172.677,237.762,187.082
0.391,38.004,5.308,5.496,172.660,237.796,187.054
0.393,38.025,5.315,5.514,172.661,237.811,187.041
0.394,38.040,5.321,5.521,172.677,237.811,187.041
0.395,38.070,5.326,5.518,172.703,237.800,187.050
0.396,38.111,5.332,5.508,172.736,237.781,187.065
0.398,38.158,5.338,5.491,172.770,237.756,187.086
0.399,38.205,5.345,5.472,172.803,237.730,187.107
0.400,38.247,5.351,5.451,172.829,237.706,187.128
0.402,38.278,5.358,5.431,172.847,237.686,187.145
0.403,38.300,5.364,5.415,172.857,237.672,187.157
0.404,38.311,5.369,5.404,172.859,237.664,187.166
0.405,38.317,5.374,5.401,172.855,237.665,187.169
0.407,38.331,5.379,5.404,172.844,237.674,187.167
0.408,38.357,5.384,5.413,172.829,237.693,187.159
0.409,38.396,5.390,5.426,172.809,237.723,187.144
0.410,38.449,5.398,5.442,172.787,237.766,187.123
0.412,38.517,5.407,5.460,172.761,237.822,187.093
0.413,38.601,5.419,5.479,172.734,237.892,187.056
0.414,38.702,5.434,5.498,172.706,237.977,187.010
0.416,38.820,5.452,5.515,172.678,238.078,186.956
0.417,38.953,5.473,5.531,172.650,238.193,186.894
0.418,39.098,5.496,5.547,172.621,238.320,186.829
0.419,39.252,5.521,5.562,172.593,238.455,186.761
0.421,39.411,5.548,5.578,172.564,238.596,186.693
0.422,39.572,5.576,5.595,172.536,238.740,186.627
0.423,39.733,5.604,5.612,172.507,238.885,186.566
0.425,39.889,5.633,5.631,172.477,239.029,186.512
0.426,40.039,5.662,5.651,172.448,239.169,186.466
0.427,40.179,5.690,5.674,172.419,239.302,186.432
0.428,40.308,5.718,5.697,172.389,239.425,186.411
0.430,40.424,5.745,5.723,172.359,239.538,186.405
0.431,40.530,5.770,5.750,172.328,239.639,186.414
0.432,40.629,5.794,5.779,172.297,239.730,186.435
0.434,40.723,5.816,5.809,172.265,239.812,186.466
0.435,40.815,5.836,5.841,172.231,239.888,186.505
0.436,40.905,5.854,5.874,172.195,239.957,186.550
0.437,40.995,5.870,5.907,172.157,240.022,186.600
0.439,41.085,5.885,5.940,172.116,240.084,186.651
0.440,41.175,5.899,5.971,172.073,240.143,186.703
0.441,41.265,5.911,6.000,172.026,240.202,186.753
0.442,41.355,5.923,6.026,171.976,240.262,186.798
0.444,41.446,5.935,6.048,171.922,240.323,186.838
0.445,41.538,5.947,6.065,171.865,240.387,186.872
0.446,41.633,5.959,6.077,171.804,240.454,186.900
0.448,41.730,5.972,6.086,171.742,240.525,186.924
0.449,41.831,5.986,6.093,171.677,240.600,186.944
0.450,41.936,6.000,6.100,171.611,240.679,186.962
0.451,42.044,6.014,6.108,171.545,240.764,186.977
0.453,42.157,6.030,6.120,171.479,240.854,186.991
0.454,42.275,6.047,6.135,171.413,240.950,187.005
0.455,42.398,6.065,6.157,171.348,241.053,187.019
0.457,42.526,6.084,6.185,171.284,241.163,187.034
0.458,42.659,6.105,6.216,171.223,241.281,187.051
0.459,42.798,6.127,6.250,171.165,241.406,187.070
0.460,42.940,6.150,6.285,171.109,241.535,187.091
0.462,43.084,6.174,6.319,171.055,241.666,187.113
0.463,43.228,6.200,6.350,171.003,241.798,187.136
0.464,43.369,6.226,6.377,170.954,241.929,187.159
0.465,43.506,6.255,6.398,170.906,242.055,187.183
0.467,43.637,6.284,6.412,170.861,242.175,187.206
0.468,43.759,6.313,6.423,170.818,242.288,187.229
0.469,43.872,6.342,6.429,170.776,242.390,187.250
0.471,43.972,6.369,6.434,170.736,242.479,187.270
0.472,44.058,6.395,6.437,170.698,242.554,187.288
0.473,44.130,6.419,6.441,170.662,242.615,187.304
0.474,44.191,6.439,6.446,170.628,242.663,187.318
0.476,44.242,6.456,6.453,170.596,242.702,187.332
0.477,44.287,6.469,6.463,170.568,242.734,187.344
0.478,44.327,6.480,6.475,170.542,242.762,187.357
0.480,44.364,6.488,6.489,170.521,242.789,187.370
0.481,44.401,6.496,6.503,170.503,242.818,187.384
0.482,44.440,6.503,6.517,170.490,242.852,187.399
0.483,44.485,6.511,6.530,170.482,242.892,187.416
0.485,44.539,6.520,6.543,170.479,242.943,187.436
0.486,44.607,6.531,6.554,170.482,243.007,187.458
0.487,44.689,6.544,6.564,170.490,243.084,187.484
0.488,44.783,6.557,6.573,170.503,243.174,187.512
0.490,44.887,6.570,6.580,170.520,243.272,187.541
0.491,44.998,6.582,6.587,170.540,243.376,187.572
0.492,45.111,6.593,6.594,170.562,243.483,187.602
0.494,45.225,6.601,6.600,170.586,243.590,187.632
0.495,45.336,6.606,6.606,170.609,243.694,187.661
0.496,45.440,6.608,6.613,170.633,243.793,187.688
0.497,45.535,6.607,6.620,170.654,243.882,187.711
0.499,45.618,6.604,6.626,170.673,243.960,187.731
0.500,45.685,6.600,6.632,170.689,244.024,187.747
0.501,45.735,6.595,6.637,170.700,244.071,187.758
0.503,45.768,6.591,6.641,170.708,244.102,187.764
0.504,45.787,6.588,6.644,170.713,244.120,187.767
0.505,45.794,6.588,6.645,170.714,244.127,187.767
0.506,45.797,6.591,6.644,170.714,244.125,187.765
0.508,45.807,6.596,6.642,170.711,244.116,187.761
0.509,45.822,6.603,6.640,170.707,244.103,187.756
0.510,45.840,6.611,6.637,170.702,244.086,187.752
0.512,45.858,6.620,6.636,170.697,244.069,187.748
0.513,45.875,6.628,6.635,170.691,244.054,187.746
0.514,45.887,6.636,6.637,170.687,244.042,187.746
0.515,45.895,6.641,6.642,170.683,244.036,187.749
0.517,45.902,6.645,6.650,170.680,244.035,187.755
0.518,45.911,6.647,6.660,170.678,244.040,187.762
0.519,45.925,6.646,6.671,170.676,244.050,187.772
0.520,45.944,6.643,6.683,170.674,244.065,187.783
0.522,45.966,6.637,6.694,170.673,244.085,187.794
