"T","Distance","Radius","FreeRadius","X","Y","Z"
0.000,0.000,1.357,1.357,20.315,8.897,65.909
0.002,0.018,1.369,1.369,20.302,8.887,65.917
0.003,0.035,1.381,1.381,20.290,8.878,65.926
0.005,0.053,1.390,1.390,20.280,8.871,65.938
0.006,0.071,1.398,1.398,20.270,8.867,65.954
0.008,0.093,1.404,1.404,20.262,8.866,65.974
0.009,0.121,1.406,1.406,20.257,8.870,66.001
0.011,0.157,1.404,1.404,20.254,8.880,66.035
0.012,0.203,1.398,1.398,20.254,8.896,66.079
0.014,0.261,1.391,1.391,20.258,8.919,66.132
0.015,0.334,1.383,1.383,20.265,8.951,66.197
0.017,0.422,1.377,1.377,20.278,8.992,66.274
0.018,0.526,1.374,1.374,20.294,9.041,66.364
0.020,0.643,1.376,1.376,20.315,9.098,66.463
0.021,0.768,1.384,1.384,20.339,9.160,66.570
0.023,0.899,1.398,1.398,20.365,9.225,66.681
0.025,1.031,1.415,1.415,20.393,9.289,66.792
0.026,1.161,1.434,1.434,20.421,9.352,66.903
0.028,1.286,1.453,1.453,20.451,9.411,67.008
0.029,1.401,1.470,1.470,20.479,9.464,67.107
0.031,1.503,1.483,1.483,20.507,9.508,67.195
0.032,1.589,1.492,1.492,20.533,9.541,67.270
0.034,1.656,1.497,1.497,20.557,9.561,67.329
0.035,1.705,1.500,1.500,20.577,9.569,67.373
0.037,1.743,1.503,1.503,20.595,9.566,67.406
0.038,1.775,1.506,1.506,20.610,9.555,67.432
0.040,1.805,1.512,1.512,20.621,9.538,67.454
0.041,1.837,1.521,1.521,20.629,9.516,67.476
0.043,1.873,1.534,1.534,20.634,9.492,67.502
0.044,1.915,1.549,1.549,20.634,9.467,67.536
0.046,1.965,1.568,1.568,20.632,9.445,67.581
0.047,2.029,1.588,1.588,20.625,9.426,67.642
0.049,2.110,1.610,1.610,20.614,9.414,67.721
0.051,2.212,1.632,1.632,20.599,9.409,67.822
0.052,2.334,1.655,1.655,20.581,9.412,67.942
0.054,2.470,1.678,1.678,20.559,9.420,68.077
0.055,2.617,1.701,1.701,20.535,9.434,68.221
0.057,2.770,1.724,1.724,20.508,9.452,68.371
0.058,2.924,1.747,1.747,20.479,9.472,68.521
0.060,3.075,1.770,1.770,20.450,9.494,68.667
0.061,3.218,1.793,1.793,20.419,9.516,68.805
0.063,3.348,1.816,1.816,20.389,9.538,68.929
0.064,3.460,1.838,1.838,20.358,9.557,69.035
0.066,3.551,1.859,1.859,20.328,9.574,69.119
0.067,3.618,1.878,1.878,20.300,9.586,69.179
0.069,3.665,1.895,1.895,20.275,9.595,69.218
0.070,3.698,1.909,1.909,20.254,9.601,69.242
0.072,3.718,1.921,1.921,20.240,9.604,69.257
0.074,3.730,1.930,1.930,20.235,9.605,69.268
0.075,3.742,1.940,1.940,20.239,9.604,69.279
0.077,3.765,1.952,1.952,20.255,9.601,69.296
0.078,3.806,1.969,1.969,20.284,9.598,69.324
0.080,3.869,1.991,1.991,20.327,9.594,69.369
0.081,3.959,2.022,2.022,20.388,9.590,69.436
0.083,4.081,2.062,2.062,20.467,9.586,69.529
0.084,4.235,2.112,2.112,20.563,9.582,69.649
0.086,4.416,2.174,2.174,20.673,9.579,69.792
0.087,4.616,2.248,2.248,20.794,9.575,69.951
0.089,4.830,2.335,2.335,20.922,9.572,70.123
0.090,5.051,2.436,2.436,21.053,9.568,70.301
0.092,5.274,2.551,2.551,21.185,9.564,70.481
0.093,5.492,2.676,2.676,21.313,9.558,70.658
0.095,5.700,2.805,2.805,21.433,9.552,70.826
0.096,5.890,2.930,2.930,21.544,9.545,70.981
0.098,6.057,3.046,3.046,21.640,9.536,71.118
0.100,6.196,3.144,3.144,21.719,9.526,71.231
0.101,6.306,3.219,3.219,21.781,9.514,71.321
0.103,6.391,3.266,3.266,21.829,9.501,71.391
0.104,6.455,3.287,3.287,21.863,9.488,71.443
0.106,6.499,3.290,3.290,21.886,9.474,71.479
0.107,6.529,3.279,3.279,21.899,9.459,71.501
0.109,6.549,3.260,3.260,21.905,9.445,71.513
0.110,6.563,3.238,3.238,21.905,9.431,71.516
0.112,6.577,3.220,3.220,21.901,9.418,71.513
0.113,6.593,3.207,3.207,21.895,9.405,71.507
0.115,6.608,3.198,3.198,21.889,9.394,71.499
0.116,6.621,3.194,3.194,21.884,9.384,71.492
0.118,6.632,3.193,3.193,21.881,9.375,71.486
0.119,6.639,3.194,3.194,21.879,9.369,71.482
0.121,6.644,3.197,3.197,21.879,9.365,71.480
0.123,6.645,3.200,3.200,21.879,9.364,71.480
0.124,6.649,3.203,3.203,21.880,9.366,71.484
0.126,6.657,3.209,3.209,21.882,9.371,71.490
0.127,6.670,3.216,3.216,21.884,9.380,71.499
0.129,6.689,3.225,3.225,21.887,9.392,71.513
0.130,6.713,3.237,3.237,21.890,9.409,71.530
0.132,6.744,3.252,3.252,21.893,9.431,71.552
0.133,6.781,3.271,3.271,21.896,9.457,71.578
0.135,6.822,3.293,3.293,21.899,9.486,71.607
0.136,6.866,3.315,3.315,21.901,9.516,71.638
0.138,6.910,3.338,3.338,21.902,9.547,71.670
0.139,6.953,3.360,3.360,21.901,9.577,71.701
0.141,6.993,3.380,3.380,21.899,9.605,71.730
0.142,7.029,3.397,3.397,21.895,9.630,71.756
0.144,7.059,3.411,3.411,21.889,9.649,71.777
0.145,7.082,3.422,3.422,21.881,9.662,71.794
0.147,7.098,3.430,3.430,21.869,9.668,71.803
0.149,7.112,3.437,3.437,21.855,9.666,71.805
0.150,7.132,3.441,3.441,21.839,9.656,71.800
0.152,7.156,3.445,3.445,21.822,9.641,71.790
0.153,7.181,3.447,3.447,21.807,9.626,71.779
0.155,7.202,3.448,3.448,21.796,9.611,71.768
0.156,7.216,3.449,3.449,21.790,9.602,71.759
0.158,7.221,3.450,3.450,21.791,9.599,71.755
0.159,7.234,3.452,3.452,21.801,9.607,71.759
0.161,7.267,3.454,3.454,21.822,9.628,71.773
0.162,7.324,3.458,3.458,21.856,9.666,71.799
0.164,7.409,3.464,3.464,21.905,9.723,71.839
0.165,7.524,3.474,3.474,21.969,9.801,71.895
0.167,7.667,3.489,3.489,22.047,9.897,71.966
0.168,7.833,3.512,3.512,22.137,10.010,72.048
0.170,8.016,3.543,3.543,22.236,10.134,72.138
0.172,8.211,3.584,3.584,22.341,10.267,72.234
0.173,8.413,3.636,3.636,22.451,10.405,72.333
0.175,8.617,3.698,3.698,22.562,10.544,72.432
0.176,8.818,3.766,3.766,22.672,10.682,72.528
0.178,9.010,3.836,3.836,22.779,10.814,72.619
0.179,9.189,3.905,3.905,22.880,10.938,72.701
0.181,9.350,3.971,3.971,22.972,11.049,72.771
0.182,9.490,4.029,4.029,23.055,11.146,72.829
0.184,9.610,4.077,4.077,23.128,11.229,72.875
0.185,9.712,4.116,4.116,23.192,11.300,72.910
0.187,9.798,4.148,4.148,23.249,11.360,72.936
0.188,9.871,4.172,4.172,23.299,11.409,72.953
0.190,9.931,4.190,4.190,23.343,11.450,72.965
0.191,9.982,4.202,4.202,23.381,11.482,72.970
0.193,10.025,4.210,4.210,23.415,11.508,72.972
0.194,10.061,4.213,4.213,23.445,11.528,72.971
0.196,10.092,4.214,4.214,23.473,11.543,72.969
0.198,10.121,4.212,4.212,23.498,11.555,72.966
0.199,10.146,4.209,4.209,23.522,11.564,72.964
0.201,10.167,4.206,4.206,23.542,11.570,72.963
0.202,10.185,4.203,4.203,23.560,11.574,72.961
0.204,10.199,4.200,4.200,23.573,11.576,72.960
0.205,10.207,4.199,4.199,23.581,11.577,72.958
0.207,10.211,4.199,4.199,23.584,11.576,72.956
0.208,10.215,4.199,4.199,23.581,11.575,72.954
0.210,10.225,4.199,4.199,23.572,11.573,72.952
0.211,10.243,4.199,4.199,23.554,11.570,72.949
0.213,10.268,4.199,4.199,23.529,11.567,72.946
0.214,10.302,4.199,4.199,23.496,11.565,72.942
0.216,10.341,4.198,4.198,23.457,11.563,72.937
0.217,10.379,4.195,4.195,23.419,11.562,72.932
0.219,10.413,4.191,4.191,23.387,11.562,72.926
0.221,10.436,4.185,4.185,23.364,11.564,72.920
0.222,10.446,4.176,4.176,23.357,11.568,72.914
0.224,10.462,4.165,4.165,23.370,11.574,72.908
0.225,10.501,4.152,4.152,23.408,11.582,72.902
0.227,10.571,4.137,4.137,23.476,11.594,72.896
0.228,10.675,4.120,4.120,23.580,11.608,72.891
0.230,10.820,4.103,4.103,23.724,11.626,72.887
0.231,11.007,4.085,4.085,23.909,11.647,72.883
0.233,11.230,4.067,4.067,24.131,11.672,72.879
0.234,11.480,4.050,4.050,24.379,11.700,72.877
0.236,11.750,4.033,4.033,24.647,11.729,72.876
0.237,12.031,4.017,4.017,24.927,11.760,72.876
0.239,12.316,4.003,4.003,25.210,11.792,72.877
0.240,12.596,3.990,3.990,25.488,11.825,72.880
0.242,12.863,3.980,3.980,25.753,11.858,72.883
0.243,13.110,3.971,3.971,25.998,11.890,72.889
0.245,13.329,3.965,3.965,26.214,11.921,72.896
0.247,13.511,3.962,3.962,26.394,11.951,72.905
0.248,13.655,3.963,3.963,26.534,11.979,72.916
0.250,13.765,3.968,3.968,26.641,12.005,72.926
0.251,13.846,3.979,3.979,26.717,12.031,72.935
0.253,13.904,3.996,3.996,26.769,12.056,72.941
0.254,13.945,4.019,4.019,26.802,12.082,72.943
0.256,13.977,4.045,4.045,26.819,12.107,72.939
0.257,14.006,4.071,4.071,26.827,12.134,72.929
0.259,14.040,4.096,4.096,26.830,12.161,72.910
0.260,14.081,4.115,4.115,26.832,12.191,72.882
0.262,14.131,4.127,4.127,26.839,12.222,72.843
0.263,14.195,4.128,4.128,26.855,12.256,72.791
0.265,14.269,4.119,4.119,26.883,12.292,72.733
0.266,14.350,4.100,4.100,26.922,12.330,72.673
0.268,14.433,4.075,4.075,26.972,12.369,72.619
0.270,14.516,4.045,4.045,27.033,12.408,72.578
0.271,14.602,4.013,4.013,27.107,12.447,72.557
0.273,14.696,3.980,3.980,27.192,12.486,72.562
0.274,14.807,3.949,3.949,27.289,12.524,72.601
0.276,14.947,3.921,3.921,27.398,12.560,72.680
0.277,15.125,3.899,3.899,27.519,12.594,72.805
0.279,15.351,3.884,3.884,27.653,12.626,72.985
0.280,15.632,3.877,3.877,27.799,12.654,73.223
0.282,15.961,3.882,3.882,27.956,12.679,73.511
0.283,16.330,3.899,3.899,28.121,12.700,73.840
0.285,16.729,3.929,3.929,28.293,12.717,74.201
0.286,17.150,3.968,3.968,28.470,12.731,74.582
0.288,17.582,4.013,4.013,28.649,12.741,74.975
0.289,18.016,4.061,4.061,28.829,12.747,75.370
0.291,18.441,4.106,4.106,29.007,12.748,75.756
0.292,18.850,4.148,4.148,29.183,12.745,76.125
0.294,19.231,4.181,4.181,29.353,12.737,76.466
0.296,19.575,4.208,4.208,29.516,12.725,76.769
0.297,19.880,4.234,4.234,29.671,12.708,77.031
0.299,20.150,4.263,4.263,29.820,12.686,77.255
0.300,20.391,4.301,4.301,29.964,12.660,77.446
0.302,20.610,4.351,4.351,30.106,12.628,77.611
0.303,20.814,4.418,4.418,30.247,12.592,77.753
0.305,21.007,4.505,4.505,30.389,12.551,77.878
0.306,21.197,4.608,4.608,30.534,12.506,77.991
0.308,21.387,4.725,4.725,30.683,12.455,78.098
0.309,21.583,4.849,4.849,30.839,12.400,78.203
0.311,21.789,4.979,4.979,31.003,12.340,78.312
0.312,22.008,5.108,5.108,31.176,12.275,78.430
0.314,22.240,5.234,5.234,31.359,12.207,78.556
0.315,22.481,5.353,5.353,31.546,12.136,78.689
0.317,22.725,5.467,5.467,31.736,12.065,78.825
0.319,22.968,5.574,5.574,31.924,11.994,78.961
0.320,23.205,5.675,5.675,32.108,11.925,79.094
0.322,23.432,5.768,5.768,32.284,11.860,79.222
0.323,23.644,5.855,5.855,32.448,11.801,79.342
0.325,23.836,5.934,5.934,32.598,11.748,79.450
0.326,24.004,6.006,6.006,32.731,11.703,79.544
0.328,24.144,6.069,6.069,32.841,11.669,79.621
0.329,24.251,6.124,6.124,32.929,11.645,79.678
0.331,24.328,6.170,6.170,32.993,11.631,79.718
0.332,24.380,6.208,6.208,33.039,11.624,79.742
0.334,24.412,6.236,6.236,33.069,11.622,79.754
0.335,24.429,6.255,6.255,33.085,11.623,79.757
0.337,24.436,6.266,6.266,33.091,11.625,79.753
0.338,24.443,6.271,6.271,33.089,11.625,79.746
0.340,24.454,6.271,6.271,33.083,11.621,79.738
0.342,24.468,6.268,6.268,33.076,11.611,79.731
0.343,24.487,6.263,6.263,33.070,11.593,79.730
0.345,24.516,6.258,6.258,33.069,11.565,79.736
0.346,24.559,6.254,6.254,33.075,11.525,79.751
0.348,24.616,6.253,6.253,33.087,11.475,79.776
0.349,24.684,6.257,6.257,33.106,11.419,79.809
0.351,24.762,6.267,6.267,33.132,11.357,79.850
0.352,24.849,6.284,6.285,33.164,11.293,79.899
0.354,24.942,6.312,6.312,33.202,11.228,79.954
0.355,25.040,6.349,6.349,33.247,11.166,80.015
0.357,25.142,6.394,6.394,33.298,11.108,80.081
0.358,25.247,6.443,6.443,33.356,11.056,80.153
0.360,25.355,6.493,6.492,33.419,11.013,80.228
0.361,25.465,6.541,6.540,33.488,10.982,80.307
0.363,25.578,6.583,6.582,33.563,10.962,80.389
0.364,25.693,6.616,6.616,33.642,10.952,80.473
0.366,25.812,6.640,6.641,33.725,10.953,80.558
0.368,25.932,6.658,6.659,33.810,10.962,80.644
0.369,26.054,6.670,6.672,33.896,10.978,80.728
0.371,26.176,6.679,6.681,33.983,11.001,80.811
0.372,26.297,6.688,6.689,34.069,11.029,80.891
0.374,26.416,6.697,6.697,34.154,11.061,80.967
0.375,26.531,6.709,6.707,34.236,11.097,81.039
0.377,26.641,6.723,6.718,34.315,11.135,81.106
0.378,26.744,6.738,6.731,34.389,11.173,81.167
0.380,26.840,6.751,6.743,34.457,11.212,81.221
0.381,26.928,6.762,6.754,34.521,11.251,81.269
0.383,27.009,6.768,6.764,34.578,11.289,81.312
0.384,27.082,6.769,6.772,34.628,11.325,81.350
0.386,27.146,6.763,6.777,34.672,11.358,81.382
0.387,27.200,6.754,6.779,34.708,11.389,81.410
0.389,27.246,6.741,6.778,34.736,11.417,81.433
0.391,27.282,6.727,6.775,34.755,11.440,81.452
0.392,27.308,6.713,6.769,34.765,11.459,81.467
0.394,27.325,6.701,6.760,34.766,11.472,81.479
0.395,27.340,6.692,6.748,34.757,11.480,81.487
0.397,27.356,6.687,6.735,34.742,11.483,81.493
0.398,27.375,6.684,6.721,34.724,11.482,81.497
0.400,27.395,6.683,6.708,34.705,11.478,81.500
0.401,27.412,6.683,6.696,34.688,11.473,81.504
0.403,27.425,6.683,6.687,34.678,11.466,81.508
0.404,27.434,6.683,6.683,34.676,11.460,81.514
0.406,27.448,6.681,6.683,34.686,11.456,81.522
0.407,27.476,6.677,6.684,34.711,11.454,81.534
0.409,27.522,6.669,6.685,34.754,11.455,81.549
0.410,27.590,6.656,6.682,34.819,11.460,81.570
0.412,27.680,6.636,6.671,34.905,11.470,81.596
0.413,27.788,6.608,6.651,35.008,11.484,81.625
0.415,27.911,6.572,6.618,35.126,11.502,81.657
0.417,28.045,6.527,6.574,35.253,11.522,81.691
0.418,28.184,6.477,6.522,35.387,11.543,81.725
0.420,28.327,6.424,6.467,35.523,11.566,81.759
0.421,28.467,6.371,6.413,35.658,11.589,81.790
0.423,28.601,6.320,6.364,35.787,11.611,81.819
0.424,28.725,6.273,6.324,35.907,11.632,81.844
0.426,28.836,6.234,6.296,36.014,11.651,81.864
0.427,28.928,6.201,6.279,36.104,11.667,81.877
0.429,29.003,6.174,6.271,36.178,11.680,81.884
0.430,29.064,6.152,6.268,36.237,11.692,81.886
0.432,29.112,6.134,6.268,36.284,11.701,81.882
0.433,29.152,6.119,6.269,36.322,11.710,81.875
0.435,29.185,6.108,6.267,36.352,11.718,81.863
0.436,29.216,6.098,6.262,36.378,11.727,81.849
0.438,29.245,6.089,6.254,36.401,11.736,81.833
0.440,29.276,6.081,6.245,36.424,11.746,81.814
0.441,29.310,6.071,6.234,36.449,11.757,81.795
0.443,29.348,6.060,6.224,36.478,11.771,81.775
0.444,29.392,6.047,6.215,36.514,11.788,81.756
0.446,29.442,6.031,6.208,36.556,11.807,81.737
0.447,29.498,6.011,6.202,36.605,11.829,81.719
0.449,29.560,5.987,6.195,36.659,11.851,81.702
0.450,29.626,5.961,6.184,36.720,11.876,81.686
0.452,29.698,5.932,6.168,36.785,11.900,81.673
0.453,29.774,5.900,6.145,36.856,11.926,81.661
0.455,29.855,5.866,6.112,36.932,11.951,81.652
0.456,29.939,5.830,6.070,37.012,11.976,81.645
0.458,30.027,5.792,6.020,37.097,11.999,81.642
0.459,30.118,5.755,5.965,37.185,12.022,81.641
0.461,30.211,5.718,5.908,37.276,12.043,81.644
0.462,30.306,5.684,5.851,37.368,12.063,81.650
0.464,30.399,5.653,5.797,37.459,12.083,81.659
0.466,30.489,5.626,5.749,37.546,12.101,81.670
0.467,30.573,5.603,5.708,37.627,12.120,81.684
0.469,30.650,5.583,5.676,37.700,12.139,81.699
0.470,30.718,5.564,5.654,37.763,12.159,81.716
0.472,30.775,5.546,5.644,37.813,12.179,81.734
0.473,30.821,5.528,5.647,37.848,12.201,81.754
0.475,30.856,5.507,5.665,37.866,12.224,81.774
0.476,30.889,5.484,5.697,37.864,12.250,81.794
0.478,30.927,5.459,5.738,37.848,12.277,81.815
0.479,30.968,5.432,5.779,37.824,12.304,81.834
0.481,31.008,5.403,5.814,37.801,12.332,81.852
0.482,31.042,5.373,5.835,37.788,12.360,81.866
0.484,31.070,5.342,5.834,37.793,12.385,81.877
0.485,31.110,5.311,5.803,37.825,12.409,81.884
0.487,31.181,5.279,5.741,37.892,12.429,81.885
0.489,31.293,5.242,5.651,38.003,12.445,81.880
0.490,31.456,5.197,5.539,38.166,12.457,81.868
0.492,31.681,5.140,5.408,38.390,12.463,81.847
0.493,31.973,5.068,5.264,38.680,12.463,81.819
0.495,32.326,4.977,5.112,39.032,12.457,81.784
0.496,32.729,4.866,4.955,39.432,12.447,81.746
0.498,33.170,4.739,4.800,39.871,12.433,81.708
0.499,33.636,4.606,4.651,40.336,12.416,81.673
0.501,34.118,4.475,4.515,40.817,12.398,81.645
0.502,34.604,4.357,4.395,41.302,12.378,81.626
0.504,35.082,4.261,4.298,41.779,12.359,81.620
0.505,35.541,4.194,4.229,42.238,12.342,81.630
0.507,35.970,4.163,4.191,42.666,12.326,81.659
0.508,36.361,4.161,4.179,43.053,12.314,81.710
0.510,36.708,4.182,4.190,43.392,12.305,81.785
0.511,37.017,4.219,4.218,43.687,12.301,81.878
0.513,37.295,4.264,4.260,43.943,12.301,81.984
0.515,37.546,4.311,4.311,44.167,12.305,82.098
0.516,37.776,4.353,4.367,44.365,12.314,82.215
0.518,37.987,4.389,4.426,44.542,12.327,82.328
0.519,38.182,4.421,4.486,44.706,12.346,82.433
0.521,38.363,4.451,4.548,44.860,12.369,82.524
0.522,38.534,4.482,4.610,45.013,12.397,82.596
0.524,38.700,4.515,4.673,45.169,12.431,82.642
0.525,38.870,4.555,4.736,45.334,12.470,82.658
0.527,39.053,4.601,4.798,45.511,12.514,82.644
0.528,39.249,4.653,4.858,45.696,12.563,82.606
0.530,39.456,4.712,4.917,45.888,12.616,82.548
0.531,39.669,4.774,4.972,46.082,12.672,82.478
0.533,39.886,4.840,5.024,46.276,12.731,82.401
0.534,40.101,4.908,5.072,46.467,12.792,82.324
0.536,40.310,4.976,5.115,46.653,12.854,82.252
0.538,40.507,5.045,5.153,46.829,12.918,82.192
0.539,40.689,5.112,5.188,46.994,12.981,82.150
0.541,40.853,5.176,5.222,47.145,13.045,82.131
0.542,41.000,5.235,5.257,47.278,13.107,82.141
0.544,41.137,5.289,5.294,47.395,13.168,82.179
0.545,41.271,5.336,5.335,47.498,13.226,82.240
0.547,41.405,5.374,5.382,47.590,13.282,82.321
0.548,41.542,5.405,5.433,47.673,13.334,82.415
0.550,41.681,5.430,5.486,47.751,13.382,82.520
0.551,41.820,5.451,5.537,47.824,13.426,82.630
0.553,41.958,5.470,5.585,47.897,13.464,82.741
0.554,42.093,5.487,5.627,47.972,13.495,82.849
0.556,42.222,5.505,5.661,48.051,13.520,82.949
0.557,42.346,5.525,5.684,48.136,13.538,83.036
0.559,42.464,5.547,5.701,48.231,13.548,83.107
0.560,42.580,5.569,5.713,48.332,13.550,83.162
0.562,42.696,5.593,5.722,48.440,13.547,83.204
0.564,42.812,5.618,5.733,48.552,13.539,83.234
0.565,42.929,5.642,5.747,48.667,13.527,83.253
0.567,43.046,5.667,5.767,48.782,13.512,83.263
0.568,43.162,5.692,5.793,48.897,13.495,83.265
0.570,43.276,5.716,5.823,49.009,13.476,83.260
0.571,43.386,5.741,5.856,49.118,13.458,83.251
0.573,43.491,5.765,5.888,49.220,13.441,83.239
0.574,43.588,5.789,5.919,49.316,13.426,83.226
0.576,43.678,5.814,5.946,49.403,13.413,83.212
0.577,43.760,5.838,5.969,49.484,13.403,83.199
0.579,43.836,5.862,5.986,49.559,13.396,83.190
0.580,43.907,5.885,6.000,49.630,13.390,83.184
0.582,43.975,5.907,6.010,49.698,13.387,83.184
0.583,44.042,5.927,6.017,49.763,13.385,83.192
0.585,44.109,5.946,6.023,49.829,13.385,83.208
0.587,44.180,5.962,6.026,49.895,13.387,83.234
0.588,44.258,5.976,6.030,49.963,13.391,83.272
0.590,44.346,5.989,6.032,50.034,13.395,83.323
0.591,44.446,6.000,6.035,50.110,13.401,83.389
0.593,44.558,6.011,6.038,50.189,13.408,83.467
0.594,44.679,6.021,6.041,50.271,13.416,83.556
0.596,44.807,6.033,6.046,50.354,13.425,83.653
0.597,44.937,6.045,6.052,50.436,13.434,83.754
0.599,45.068,6.058,6.060,50.517,13.444,83.856
0.600,45.195,6.071,6.067,50.593,13.453,83.958
0.602,45.316,6.085,6.074,50.664,13.463,84.055
0.603,45.427,6.098,6.079,50.729,13.472,84.145
0.605,45.526,6.111,6.083,50.785,13.481,84.225
0.606,45.608,6.124,6.083,50.832,13.490,84.292
0.608,45.671,6.134,6.080,50.867,13.498,84.344
0.609,45.716,6.144,6.075,50.892,13.504,84.382
0.611,45.746,6.151,6.068,50.908,13.510,84.405
0.613,45.761,6.156,6.062,50.915,13.514,84.418
0.614,45.764,6.158,6.056,50.915,13.517,84.419
0.616,45.773,6.158,6.053,50.910,13.518,84.412
0.617,45.791,6.153,6.053,50.899,13.517,84.397
0.619,45.817,6.146,6.056,50.885,13.513,84.376
0.620,45.848,6.137,6.061,50.868,13.508,84.350
0.622,45.883,6.127,6.068,50.850,13.499,84.321
0.623,45.921,6.116,6.075,50.831,13.488,84.291
0.625,45.959,6.107,6.082,50.814,13.475,84.260
0.626,45.994,6.099,6.088,50.798,13.461,84.231
0.628,46.023,6.094,6.091,50.787,13.449,84.208
0.629,46.042,6.089,6.092,50.782,13.440,84.191
0.631,46.050,6.084,6.088,50.785,13.437,84.185
0.632,46.064,6.075,6.079,50.797,13.441,84.190
0.634,46.098,6.062,6.064,50.820,13.456,84.211
0.636,46.156,6.042,6.042,50.856,13.482,84.248
0.637,46.242,6.013,6.012,50.906,13.523,84.305
0.639,46.360,5.977,5.975,50.973,13.579,84.385
0.640,46.513,5.936,5.935,51.057,13.654,84.488
0.642,46.699,5.896,5.895,51.158,13.745,84.615
0.643,46.911,5.860,5.860,51.272,13.850,84.760
0.645,47.142,5.832,5.832,51.395,13.964,84.918
0.646,47.384,5.815,5.815,51.524,14.085,85.084
0.648,47.630,5.814,5.813,51.654,14.207,85.253
0.649,47.873,5.825,5.823,51.782,14.328,85.420
0.651,48.104,5.844,5.842,51.904,14.444,85.579
0.652,48.317,5.868,5.865,52.016,14.550,85.726
0.654,48.505,5.892,5.889,52.114,14.644,85.855
0.655,48.659,5.911,5.909,52.195,14.721,85.962
0.657,48.774,5.921,5.922,52.256,14.778,86.041
0.658,48.852,5.922,5.926,52.296,14.816,86.095
0.660,48.897,5.914,5.923,52.320,14.838,86.127
0.662,48.914,5.902,5.914,52.329,14.846,86.139
0.663,48.919,5.888,5.901,52.326,14.843,86.137
0.665,48.941,5.876,5.886,52.314,14.832,86.122
0.666,48.974,5.868,5.872,52.296,14.815,86.100
0.668,49.014,5.869,5.860,52.274,14.796,86.073
0.669,49.056,5.876,5.850,52.251,14.775,86.045
