"T","Distance","Radius","FreeRadius","X","Y","Z"
0.000,0.000,2.056,2.056,237.031,216.774,211.443
0.001,0.152,2.049,2.049,236.901,216.834,211.491
0.003,0.301,2.042,2.042,236.772,216.894,211.539
0.004,0.448,2.036,2.036,236.646,216.953,211.587
0.005,0.591,2.032,2.032,236.525,217.009,211.634
0.007,0.727,2.028,2.028,236.408,217.063,211.681
0.008,0.855,2.027,2.027,236.299,217.113,211.726
0.010,0.975,2.027,2.027,236.198,217.159,211.770
0.011,1.084,2.030,2.030,236.106,217.201,211.812
0.012,1.180,2.036,2.036,236.026,217.236,211.852
0.014,1.264,2.043,2.043,235.958,217.266,211.891
0.015,1.333,2.051,2.051,235.904,217.289,211.927
0.016,1.387,2.060,2.060,235.865,217.304,211.960
0.018,1.427,2.070,2.070,235.839,217.313,211.991
0.019,1.458,2.079,2.079,235.825,217.316,212.018
0.021,1.480,2.087,2.087,235.821,217.315,212.040
0.022,1.498,2.093,2.093,235.823,217.311,212.056
0.023,1.512,2.099,2.099,235.830,217.305,212.067
0.025,1.524,2.101,2.101,235.840,217.299,212.071
0.026,1.535,2.102,2.102,235.849,217.294,212.067
0.027,1.550,2.100,2.100,235.857,217.290,212.056
0.029,1.571,2.094,2.094,235.861,217.290,212.035
0.030,1.602,2.085,2.085,235.859,217.295,212.004
0.032,1.646,2.071,2.071,235.848,217.305,211.963
0.033,1.700,2.054,2.054,235.828,217.321,211.916
0.034,1.757,2.032,2.032,235.799,217.338,211.869
0.036,1.814,2.005,2.005,235.763,217.356,211.829
0.037,1.867,1.974,1.974,235.719,217.372,211.804
0.038,1.920,1.937,1.937,235.668,217.384,211.800
0.040,1.982,1.895,1.895,235.611,217.389,211.824
0.041,2.068,1.848,1.848,235.548,217.384,211.884
0.043,2.191,1.800,1.800,235.480,217.368,211.985
0.044,2.361,1.762,1.762,235.408,217.339,212.136
0.045,2.586,1.741,1.741,235.332,217.293,212.343
0.047,2.875,1.747,1.747,235.253,217.229,212.613
0.048,3.226,1.790,1.790,235.171,217.147,212.944
0.049,3.627,1.878,1.878,235.088,217.050,213.325
0.051,4.067,2.020,2.020,235.006,216.942,213.743
0.052,4.531,2.217,2.217,234.924,216.827,214.185
0.054,5.007,2.452,2.452,234.846,216.709,214.639
0.055,5.481,2.706,2.706,234.771,216.591,215.093
0.056,5.940,2.959,2.959,234.702,216.477,215.532
0.058,6.372,3.193,3.193,234.639,216.371,215.946
0.059,6.763,3.389,3.389,234.584,216.276,216.321
0.060,7.099,3.526,3.526,234.538,216.196,216.644
0.062,7.368,3.591,3.591,234.502,216.136,216.904
0.063,7.563,3.591,3.591,234.478,216.096,217.094
0.065,7.692,3.545,3.545,234.465,216.073,217.220
0.066,7.765,3.468,3.468,234.464,216.064,217.293
0.067,7.795,3.378,3.378,234.475,216.065,217.320
0.069,7.820,3.293,3.293,234.497,216.072,217.313
0.070,7.870,3.229,3.229,234.532,216.081,217.278
0.071,7.940,3.202,3.202,234.579,216.088,217.227
0.073,8.024,3.217,3.217,234.639,216.090,217.167
0.074,8.117,3.264,3.264,234.711,216.083,217.109
0.076,8.217,3.335,3.335,234.796,216.063,217.061
0.077,8.325,3.420,3.420,234.893,216.026,217.032
0.078,8.449,3.510,3.510,235.003,215.970,217.029
0.080,8.591,3.597,3.597,235.123,215.896,217.050
0.081,8.751,3.671,3.671,235.250,215.809,217.092
0.082,8.924,3.726,3.726,235.381,215.711,217.150
0.084,9.107,3.764,3.764,235.514,215.607,217.221
0.085,9.293,3.790,3.790,235.644,215.499,217.299
0.087,9.478,3.805,3.805,235.769,215.391,217.381
0.088,9.655,3.813,3.813,235.886,215.286,217.463
0.089,9.820,3.818,3.818,235.993,215.188,217.540
0.091,9.965,3.823,3.823,236.086,215.100,217.609
0.092,10.085,3.831,3.831,236.162,215.025,217.665
0.093,10.176,3.841,3.841,236.218,214.967,217.706
0.095,10.239,3.854,3.854,236.258,214.925,217.731
0.096,10.280,3.868,3.868,236.284,214.896,217.744
0.098,10.305,3.884,3.884,236.300,214.878,217.748
0.099,10.320,3.899,3.899,236.311,214.868,217.746
0.100,10.331,3.913,3.913,236.320,214.864,217.740
0.102,10.344,3.925,3.925,236.331,214.864,217.733
0.103,10.361,3.936,3.936,236.348,214.865,217.729
0.104,10.388,3.947,3.947,236.374,214.864,217.731
0.106,10.429,3.958,3.958,236.414,214.860,217.741
0.107,10.491,3.971,3.971,236.472,214.850,217.762
0.109,10.579,3.987,3.987,236.551,214.831,217.797
0.110,10.693,4.006,4.006,236.649,214.804,217.846
0.111,10.827,4.031,4.031,236.764,214.769,217.906
0.113,10.977,4.061,4.061,236.890,214.729,217.976
0.114,11.136,4.095,4.095,237.023,214.683,218.052
0.115,11.302,4.133,4.133,237.158,214.635,218.133
0.117,11.467,4.172,4.172,237.292,214.585,218.215
0.118,11.627,4.211,4.211,237.420,214.534,218.298
0.120,11.777,4.249,4.249,237.537,214.484,218.377
0.121,11.911,4.285,4.285,237.639,214.437,218.451
0.122,12.026,4.317,4.317,237.722,214.393,218.517
0.124,12.116,4.344,4.344,237.781,214.354,218.573
0.125,12.183,4.368,4.368,237.816,214.321,218.619
0.126,12.231,4.387,4.387,237.832,214.292,218.654
0.128,12.268,4.403,4.403,237.833,214.266,218.680
0.129,12.300,4.415,4.415,237.825,214.241,218.699
0.130,12.329,4.423,4.423,237.812,214.217,218.710
0.132,12.357,4.427,4.427,237.800,214.193,218.717
0.133,12.385,4.428,4.428,237.794,214.166,218.718
0.135,12.415,4.426,4.426,237.798,214.136,218.716
0.136,12.455,4.422,4.422,237.818,214.102,218.712
0.137,12.512,4.417,4.417,237.859,214.062,218.706
0.139,12.593,4.410,4.410,237.925,214.016,218.700
0.140,12.701,4.404,4.404,238.019,213.962,218.694
0.141,12.834,4.398,4.398,238.137,213.902,218.689
0.143,12.985,4.393,4.393,238.274,213.838,218.684
0.144,13.150,4.389,4.389,238.425,213.772,218.679
0.146,13.323,4.386,4.386,238.584,213.704,218.674
0.147,13.500,4.383,4.383,238.748,213.637,218.669
0.148,13.676,4.382,4.382,238.911,213.573,218.663
0.150,13.845,4.381,4.381,239.069,213.512,218.656
0.151,14.002,4.380,4.380,239.216,213.457,218.648
0.152,14.142,4.380,4.380,239.348,213.409,218.640
0.154,14.261,4.380,4.380,239.459,213.370,218.629
0.155,14.354,4.381,4.381,239.547,213.341,218.618
0.157,14.424,4.382,4.382,239.613,213.321,218.606
0.158,14.477,4.383,4.383,239.663,213.309,218.593
0.159,14.517,4.384,4.384,239.700,213.302,218.580
0.161,14.547,4.385,4.385,239.728,213.300,218.568
0.162,14.573,4.386,4.386,239.751,213.300,218.556
0.163,14.598,4.387,4.387,239.774,213.302,218.547
0.165,14.626,4.388,4.388,239.801,213.303,218.539
0.166,14.661,4.391,4.391,239.835,213.303,218.534
0.168,14.708,4.395,4.395,239.882,213.299,218.532
0.169,14.771,4.401,4.401,239.944,213.290,218.534
0.170,14.854,4.409,4.409,240.026,213.275,218.539
0.172,14.957,4.421,4.421,240.127,213.254,218.549
0.173,15.076,4.436,4.436,240.241,213.228,218.562
0.174,15.206,4.452,4.452,240.368,213.198,218.579
0.176,15.346,4.469,4.469,240.501,213.165,218.599
0.177,15.490,4.484,4.484,240.639,213.129,218.622
0.179,15.636,4.496,4.496,240.778,213.093,218.647
0.180,15.779,4.502,4.502,240.914,213.056,218.675
0.181,15.917,4.501,4.501,241.044,213.020,218.704
0.183,16.046,4.492,4.492,241.164,212.986,218.736
0.184,16.162,4.475,4.475,241.271,212.954,218.769
0.185,16.263,4.453,4.453,241.362,212.926,218.804
0.187,16.349,4.429,4.429,241.435,212.901,218.840
0.188,16.424,4.407,4.407,241.496,212.879,218.879
0.190,16.493,4.388,4.388,241.544,212.859,218.923
0.191,16.560,4.375,4.375,241.585,212.839,218.972
0.192,16.629,4.373,4.373,241.620,212.818,219.028
0.194,16.703,4.381,4.381,241.651,212.797,219.092
0.195,16.786,4.399,4.399,241.682,212.773,219.165
0.196,16.880,4.425,4.425,241.716,212.746,219.249
0.198,16.987,4.457,4.457,241.754,212.715,219.344
0.199,17.110,4.495,4.495,241.800,212.679,219.452
0.201,17.250,4.537,4.537,241.856,212.636,219.573
0.202,17.408,4.581,4.581,241.923,212.589,219.708
0.203,17.580,4.625,4.625,241.998,212.536,219.853
0.205,17.760,4.670,4.670,242.079,212.481,220.005
0.206,17.945,4.715,4.715,242.164,212.424,220.159
0.207,18.131,4.759,4.759,242.250,212.368,220.313
0.209,18.312,4.802,4.802,242.334,212.313,220.463
0.210,18.484,4.843,4.843,242.415,212.262,220.606
0.212,18.643,4.883,4.883,242.490,212.215,220.739
0.213,18.784,4.920,4.920,242.556,212.174,220.857
0.214,18.903,4.954,4.954,242.611,212.141,220.957
0.216,18.995,4.985,4.985,242.652,212.118,221.036
0.217,19.060,5.012,5.012,242.678,212.104,221.093
0.218,19.101,5.036,5.036,242.693,212.098,221.131
0.220,19.124,5.054,5.054,242.697,212.098,221.154
0.221,19.136,5.067,5.067,242.695,212.101,221.166
0.223,19.146,5.074,5.074,242.689,212.106,221.170
0.224,19.155,5.076,5.076,242.681,212.111,221.172
0.225,19.162,5.075,5.075,242.674,212.112,221.174
0.227,19.170,5.073,5.073,242.671,212.109,221.180
0.228,19.189,5.072,5.072,242.674,212.099,221.196
0.229,19.225,5.075,5.075,242.687,212.079,221.224
0.231,19.285,5.084,5.084,242.711,212.049,221.268
0.232,19.371,5.101,5.101,242.749,212.005,221.332
0.234,19.480,5.129,5.129,242.800,211.950,221.412
0.235,19.609,5.166,5.166,242.859,211.887,221.506
0.236,19.751,5.210,5.210,242.927,211.817,221.610
0.238,19.902,5.259,5.259,242.998,211.742,221.720
0.239,20.058,5.310,5.310,243.072,211.665,221.833
0.240,20.212,5.363,5.363,243.146,211.588,221.946
0.242,20.361,5.414,5.414,243.217,211.514,222.053
0.243,20.500,5.462,5.462,243.283,211.444,222.153
0.245,20.623,5.504,5.504,243.342,211.381,222.242
0.246,20.727,5.542,5.542,243.390,211.327,222.315
0.247,20.805,5.575,5.575,243.426,211.284,222.371
0.249,20.861,5.602,5.602,243.451,211.252,222.410
0.250,20.898,5.624,5.624,243.466,211.229,222.434
0.251,20.919,5.640,5.640,243.474,211.214,222.446
0.253,20.930,5.650,5.650,243.477,211.205,222.450
0.254,20.935,5.654,5.654,243.477,211.200,222.446
0.255,20.942,5.654,5.654,243.475,211.200,222.440
0.257,20.949,5.651,5.651,243.475,211.201,222.432
0.258,20.956,5.647,5.647,243.478,211.202,222.426
0.260,20.965,5.643,5.643,243.487,211.203,222.425
0.261,20.981,5.641,5.641,243.502,211.201,222.430
0.262,21.011,5.643,5.643,243.527,211.195,222.445
0.264,21.054,5.650,5.650,243.561,211.185,222.470
0.265,21.108,5.662,5.662,243.602,211.172,222.503
0.266,21.172,5.677,5.677,243.649,211.155,222.543
0.268,21.242,5.694,5.694,243.699,211.136,222.588
0.269,21.317,5.712,5.712,243.751,211.114,222.636
0.271,21.393,5.731,5.731,243.804,211.091,222.687
0.272,21.470,5.748,5.748,243.854,211.066,222.738
0.273,21.543,5.763,5.763,243.901,211.041,222.788
0.275,21.611,5.775,5.775,243.943,211.015,222.836
0.276,21.672,5.784,5.784,243.978,210.990,222.880
0.277,21.724,5.791,5.791,244.003,210.966,222.917
0.279,21.767,5.796,5.796,244.020,210.942,222.949
0.280,21.804,5.798,5.798,244.028,210.918,222.977
0.282,21.838,5.798,5.798,244.028,210.895,223.002
0.283,21.873,5.795,5.795,244.023,210.870,223.025
0.284,21.910,5.792,5.792,244.012,210.845,223.050
0.286,21.951,5.787,5.787,243.998,210.817,223.077
0.287,21.997,5.782,5.782,243.982,210.788,223.108
0.288,22.049,5.779,5.779,243.964,210.755,223.145
0.290,22.109,5.777,5.777,243.946,210.719,223.189
0.291,22.177,5.778,5.778,243.929,210.679,223.242
0.293,22.256,5.783,5.783,243.915,210.635,223.305
0.294,22.347,5.792,5.792,243.903,210.586,223.381
0.295,22.450,5.806,5.806,243.894,210.531,223.468
0.297,22.565,5.823,5.823,243.888,210.470,223.566
0.298,22.693,5.842,5.842,243.884,210.403,223.675
0.299,22.834,5.864,5.864,243.883,210.329,223.794
0.301,22.987,5.886,5.886,243.883,210.247,223.923
0.302,23.152,5.909,5.908,243.885,210.157,224.062
0.304,23.329,5.930,5.930,243.889,210.058,224.209
0.305,23.519,5.951,5.951,243.894,209.951,224.365
0.306,23.722,5.973,5.973,243.901,209.833,224.530
0.308,23.936,5.997,5.998,243.908,209.705,224.702
0.309,24.163,6.026,6.027,243.916,209.567,224.882
0.310,24.398,6.061,6.061,243.924,209.421,225.066
0.312,24.639,6.103,6.103,243.932,209.270,225.253
0.313,24.881,6.154,6.154,243.941,209.115,225.439
0.315,25.120,6.215,6.214,243.950,208.961,225.622
0.316,25.354,6.284,6.282,243.958,208.809,225.800
0.317,25.579,6.356,6.354,243.966,208.662,225.969
0.319,25.790,6.430,6.426,243.974,208.523,226.128
0.320,25.984,6.500,6.497,243.981,208.394,226.273
0.321,26.158,6.565,6.562,243.986,208.278,226.402
0.323,26.307,6.620,6.619,243.991,208.178,226.513
0.324,26.428,6.663,6.665,243.995,208.097,226.602
0.326,26.523,6.693,6.699,243.998,208.033,226.672
0.327,26.594,6.712,6.723,244.002,207.985,226.725
0.328,26.644,6.722,6.737,244.008,207.953,226.762
0.330,26.676,6.723,6.743,244.017,207.935,226.787
0.331,26.696,6.717,6.741,244.031,207.930,226.802
0.332,26.718,6.707,6.734,244.050,207.936,226.809
0.334,26.748,6.693,6.721,244.075,207.952,226.811
0.335,26.790,6.676,6.703,244.109,207.977,226.809
0.337,26.844,6.657,6.683,244.151,208.010,226.807
0.338,26.909,6.637,6.659,244.204,208.049,226.807
0.339,26.987,6.617,6.634,244.268,208.094,226.812
0.341,27.076,6.596,6.609,244.342,208.142,226.820
0.342,27.175,6.576,6.583,244.426,208.192,226.833
0.343,27.280,6.557,6.557,244.516,208.244,226.848
0.345,27.391,6.540,6.534,244.612,208.297,226.866
0.346,27.504,6.524,6.511,244.711,208.348,226.884
0.348,27.618,6.508,6.491,244.812,208.398,226.902
0.349,27.730,6.491,6.472,244.912,208.444,226.920
0.350,27.838,6.472,6.454,245.011,208.486,226.936
0.352,27.940,6.451,6.438,245.105,208.522,226.949
0.353,28.034,6.427,6.423,245.194,208.552,226.959
0.354,28.119,6.399,6.409,245.276,208.573,226.965
0.356,28.194,6.367,6.396,245.350,208.587,226.965
0.357,28.262,6.331,6.382,245.418,208.592,226.962
0.359,28.328,6.291,6.366,245.483,208.592,226.956
0.360,28.392,6.249,6.345,245.547,208.585,226.948
0.361,28.459,6.204,6.320,245.612,208.573,226.938
0.363,28.530,6.156,6.288,245.680,208.557,226.927
0.364,28.608,6.106,6.249,245.754,208.537,226.917
0.365,28.693,6.055,6.200,245.836,208.515,226.908
0.367,28.788,6.002,6.144,245.928,208.491,226.901
0.368,28.896,5.946,6.081,246.032,208.466,226.896
0.370,29.017,5.889,6.011,246.151,208.441,226.895
0.371,29.153,5.829,5.935,246.285,208.416,226.897
0.372,29.304,5.766,5.855,246.434,208.392,226.904
0.374,29.467,5.700,5.770,246.594,208.369,226.915
0.375,29.640,5.632,5.682,246.766,208.347,226.929
0.376,29.823,5.560,5.594,246.946,208.325,226.947
0.378,30.012,5.484,5.507,247.133,208.305,226.969
0.379,30.207,5.404,5.424,247.326,208.286,226.994
0.380,30.406,5.318,5.348,247.522,208.269,227.022
0.382,30.608,5.226,5.281,247.720,208.253,227.054
0.383,30.809,5.129,5.227,247.919,208.239,227.089
0.385,31.010,5.024,5.186,248.115,208.227,227.126
0.386,31.208,4.914,5.158,248.308,208.217,227.167
0.387,31.403,4.802,5.137,248.499,208.206,227.208
0.389,31.597,4.691,5.116,248.688,208.191,227.248
0.390,31.789,4.583,5.090,248.876,208.169,227.285
0.391,31.982,4.482,5.054,249.063,208.138,227.316
0.393,32.176,4.391,5.001,249.251,208.094,227.339
0.394,32.375,4.312,4.926,249.441,208.035,227.353
0.396,32.582,4.248,4.826,249.632,207.957,227.354
0.397,32.800,4.196,4.708,249.827,207.859,227.342
0.398,33.035,4.154,4.579,250.025,207.736,227.313
0.400,33.291,4.119,4.445,250.228,207.586,227.266
0.401,33.574,4.088,4.314,250.436,207.407,227.200
0.402,33.882,4.060,4.192,250.649,207.201,227.117
0.404,34.212,4.032,4.087,250.868,206.971,227.026
0.405,34.561,4.002,4.005,251.092,206.721,226.933
0.407,34.923,3.970,3.944,251.322,206.456,226.844
0.408,35.294,3.938,3.901,251.557,206.179,226.767
0.409,35.672,3.908,3.873,251.797,205.894,226.707
0.411,36.053,3.881,3.857,252.043,205.604,226.672
0.412,36.436,3.860,3.848,252.293,205.315,226.668
0.413,36.820,3.846,3.844,252.549,205.029,226.702
0.415,37.210,3.841,3.841,252.810,204.751,226.781
0.416,37.608,3.845,3.840,253.075,204.484,226.910
0.418,38.017,3.859,3.843,253.344,204.231,227.088
0.419,38.437,3.883,3.856,253.611,203.992,227.305
0.420,38.862,3.916,3.883,253.875,203.768,227.553
0.422,39.288,3.959,3.926,254.130,203.561,227.823
0.423,39.706,4.012,3.990,254.374,203.370,228.105
0.424,40.111,4.074,4.080,254.603,203.198,228.390
0.426,40.494,4.146,4.195,254.813,203.044,228.671
0.427,40.846,4.223,4.327,255.002,202.910,228.937
0.429,41.159,4.301,4.469,255.164,202.797,229.179
0.430,41.425,4.378,4.610,255.297,202.705,229.390
0.431,41.633,4.449,4.741,255.397,202.635,229.559
0.433,41.783,4.512,4.853,255.465,202.587,229.684
0.434,41.882,4.561,4.938,255.504,202.557,229.769
0.435,41.936,4.594,4.987,255.521,202.543,229.819
0.437,41.956,4.613,5.002,255.520,202.541,229.838
0.438,41.972,4.621,4.993,255.507,202.547,229.832
0.440,42.008,4.622,4.965,255.487,202.560,229.804
0.441,42.060,4.618,4.927,255.464,202.575,229.761
0.442,42.120,4.614,4.886,255.445,202.590,229.705
0.444,42.185,4.612,4.850,255.433,202.602,229.643
0.445,42.249,4.617,4.825,255.435,202.606,229.579
0.446,42.314,4.629,4.816,255.455,202.601,229.518
0.448,42.385,4.649,4.819,255.497,202.584,229.463
0.449,42.467,4.675,4.834,255.557,202.557,229.414
0.451,42.561,4.706,4.858,255.633,202.522,229.371
0.452,42.664,4.743,4.888,255.720,202.479,229.335
0.453,42.776,4.783,4.924,255.817,202.431,229.305
0.455,42.893,4.826,4.962,255.919,202.380,229.281
0.456,43.011,4.872,5.001,256.023,202.328,229.263
0.457,43.128,4.919,5.040,256.127,202.275,229.251
0.459,43.240,4.966,5.077,256.226,202.224,229.245
0.460,43.343,5.011,5.114,256.318,202.177,229.245
0.462,43.435,5.053,5.148,256.399,202.135,229.250
0.463,43.512,5.092,5.178,256.467,202.100,229.261
0.464,43.577,5.125,5.205,256.523,202.071,229.278
0.466,43.631,5.151,5.227,256.568,202.049,229.299
0.467,43.679,5.171,5.244,256.605,202.033,229.325
0.468,43.722,5.185,5.259,256.634,202.024,229.355
0.470,43.764,5.193,5.272,256.658,202.020,229.390
0.471,43.808,5.196,5.285,256.678,202.022,229.428
0.473,43.854,5.193,5.298,256.697,202.030,229.470
0.474,43.904,5.187,5.313,256.715,202.043,229.515
0.475,43.959,5.176,5.332,256.734,202.061,229.563
0.477,44.019,5.163,5.353,256.757,202.084,229.613
0.478,44.084,5.148,5.377,256.784,202.112,229.666
0.479,44.155,5.135,5.402,256.818,202.142,229.720
0.481,44.229,5.126,5.427,256.856,202.172,229.776
0.482,44.308,5.123,5.450,256.902,202.200,229.834
0.484,44.389,5.128,5.470,256.954,202.223,229.892
0.485,44.473,5.143,5.487,257.013,202.239,229.950
0.486,44.562,5.170,5.499,257.079,202.244,230.008
0.488,44.656,5.207,5.507,257.153,202.237,230.066
0.489,44.758,5.251,5.515,257.235,202.216,230.124
0.490,44.872,5.301,5.524,257.326,202.176,230.180
0.492,45.000,5.353,5.536,257.425,202.117,230.234
0.493,45.146,5.406,5.553,257.534,202.036,230.287
0.495,45.309,5.456,5.578,257.651,201.933,230.337
0.496,45.488,5.502,5.612,257.775,201.813,230.385
0.497,45.679,5.544,5.655,257.904,201.679,230.430
0.499,45.879,5.582,5.703,258.037,201.536,230.472
0.500,46.084,5.618,5.754,258.171,201.386,230.512
0.501,46.290,5.653,5.805,258.306,201.235,230.548
0.503,46.494,5.688,5.855,258.440,201.085,230.580
0.504,46.691,5.725,5.899,258.571,200.940,230.608
0.505,46.878,5.763,5.936,258.697,200.805,230.633
0.507,47.051,5.804,5.964,258.818,200.683,230.653
0.508,47.206,5.847,5.985,258.930,200.577,230.669
0.510,47.342,5.890,6.001,259.035,200.490,230.681
0.511,47.461,5.931,6.012,259.130,200.420,230.688
0.512,47.564,5.971,6.022,259.216,200.364,230.693
0.514,47.652,6.008,6.030,259.293,200.322,230.695
0.515,47.726,6.039,6.040,259.361,200.291,230.696
0.516,47.789,6.066,6.052,259.420,200.269,230.695
0.518,47.839,6.087,6.066,259.469,200.256,230.693
0.519,47.879,6.103,6.080,259.508,200.249,230.692
0.521,47.909,6.114,6.094,259.537,200.246,230.691
0.522,47.928,6.121,6.106,259.557,200.245,230.692
0.523,47.938,6.124,6.116,259.566,200.246,230.694
0.525,47.943,6.124,6.122,259.566,200.246,230.699
0.526,47.955,6.121,6.124,259.559,200.246,230.709
0.527,47.974,6.115,6.120,259.549,200.246,230.725
0.529,48.000,6.106,6.111,259.539,200.247,230.749
0.530,48.035,6.093,6.098,259.531,200.249,230.783
0.532,48.081,6.075,6.079,259.529,200.252,230.829
0.533,48.142,6.053,6.055,259.536,200.257,230.889
0.534,48.219,6.025,6.026,259.555,200.263,230.964
0.536,48.318,5.993,5.992,259.589,200.272,231.056
0.537,48.442,5.955,5.954,259.641,200.284,231.168
0.538,48.594,5.913,5.913,259.714,200.298,231.301
0.540,48.777,5.870,5.871,259.810,200.316,231.455
0.541,48.986,5.827,5.829,259.927,200.337,231.628
0.543,49.217,5.786,5.788,260.059,200.360,231.815
0.544,49.462,5.749,5.751,260.203,200.384,232.011
0.545,49.715,5.718,5.718,260.354,200.410,232.214
0.547,49.972,5.693,5.691,260.508,200.437,232.417
0.548,50.225,5.675,5.670,260.661,200.465,232.617
0.549,50.469,5.661,5.654,260.808,200.491,232.810
0.551,50.698,5.651,5.642,260.946,200.518,232.990
0.552,50.905,5.643,5.633,261.069,200.542,233.155
0.554,51.085,5.635,5.628,261.174,200.565,233.299
0.555,51.232,5.627,5.624,261.258,200.586,233.419
0.556,51.348,5.616,5.621,261.319,200.605,233.515
0.558,51.436,5.603,5.620,261.363,200.621,233.590
0.559,51.500,5.589,5.619,261.390,200.635,233.646
