"T","Distance","Radius","FreeRadius","X","Y","Z"
0.000,0.000,2.239,2.239,184.097,210.479,198.304
0.001,0.035,2.254,2.254,184.068,210.489,198.286
0.003,0.069,2.269,2.269,184.040,210.500,198.269
0.004,0.103,2.284,2.284,184.013,210.514,198.256
0.006,0.136,2.298,2.298,183.986,210.531,198.246
0.007,0.170,2.311,2.311,183.960,210.553,198.242
0.009,0.208,2.323,2.323,183.935,210.580,198.244
0.010,0.250,2.334,2.334,183.911,210.614,198.255
0.012,0.302,2.344,2.344,183.889,210.656,198.275
0.013,0.365,2.353,2.353,183.869,210.707,198.306
0.014,0.442,2.363,2.363,183.850,210.768,198.349
0.016,0.536,2.376,2.376,183.834,210.841,198.406
0.017,0.646,2.393,2.393,183.820,210.925,198.476
0.019,0.771,2.414,2.414,183.807,211.020,198.556
0.020,0.906,2.442,2.442,183.794,211.123,198.643
0.022,1.048,2.477,2.477,183.780,211.233,198.732
0.023,1.194,2.518,2.518,183.765,211.348,198.820
0.025,1.340,2.566,2.566,183.748,211.466,198.904
0.026,1.483,2.618,2.618,183.727,211.586,198.979
0.028,1.621,2.676,2.676,183.702,211.707,199.041
0.029,1.753,2.737,2.737,183.671,211.826,199.088
0.030,1.877,2.801,2.801,183.634,211.941,199.115
0.032,1.996,2.868,2.868,183.590,212.052,199.119
0.033,2.115,2.936,2.936,183.539,212.157,199.100
0.035,2.236,3.003,3.003,183.483,212.256,199.060
0.036,2.360,3.069,3.069,183.422,212.350,199.005
0.038,2.487,3.132,3.132,183.359,212.437,198.938
0.039,2.615,3.190,3.190,183.296,212.519,198.862
0.041,2.742,3.243,3.243,183.232,212.595,198.783
0.042,2.865,3.289,3.289,183.171,212.665,198.703
0.043,2.980,3.329,3.329,183.113,212.729,198.627
0.045,3.084,3.363,3.363,183.061,212.788,198.558
0.046,3.175,3.392,3.392,183.014,212.840,198.501
0.048,3.248,3.417,3.417,182.976,212.887,198.459
0.049,3.305,3.438,3.438,182.946,212.928,198.432
0.051,3.350,3.455,3.455,182.923,212.964,198.419
0.052,3.384,3.470,3.470,182.907,212.994,198.418
0.054,3.413,3.482,3.482,182.896,213.019,198.425
0.055,3.439,3.491,3.491,182.890,213.040,198.441
0.057,3.465,3.497,3.497,182.888,213.055,198.462
0.058,3.493,3.500,3.500,182.889,213.067,198.486
0.059,3.520,3.500,3.500,182.892,213.074,198.512
0.061,3.546,3.497,3.497,182.896,213.077,198.538
0.062,3.570,3.490,3.490,182.902,213.076,198.562
0.064,3.591,3.482,3.482,182.906,213.071,198.581
0.065,3.607,3.473,3.473,182.910,213.065,198.595
0.067,3.618,3.464,3.464,182.910,213.057,198.604
0.068,3.626,3.456,3.456,182.905,213.051,198.607
0.070,3.638,3.451,3.451,182.895,213.047,198.603
0.071,3.660,3.448,3.448,182.877,213.047,198.591
0.072,3.693,3.450,3.450,182.850,213.052,198.573
0.074,3.741,3.456,3.456,182.813,213.064,198.545
0.075,3.805,3.465,3.465,182.763,213.085,198.510
0.077,3.889,3.476,3.476,182.700,213.116,198.464
0.078,3.993,3.490,3.490,182.622,213.158,198.409
0.080,4.119,3.506,3.506,182.529,213.213,198.344
0.081,4.264,3.522,3.522,182.423,213.278,198.271
0.083,4.422,3.540,3.540,182.307,213.352,198.192
0.084,4.590,3.559,3.559,182.184,213.431,198.109
0.086,4.764,3.578,3.578,182.057,213.514,198.023
0.087,4.939,3.597,3.597,181.929,213.597,197.938
0.088,5.112,3.617,3.617,181.804,213.680,197.854
0.090,5.276,3.637,3.637,181.683,213.758,197.774
0.091,5.429,3.657,3.657,181.571,213.831,197.699
0.093,5.566,3.676,3.676,181.470,213.895,197.633
0.094,5.683,3.695,3.695,181.382,213.949,197.576
0.096,5.778,3.712,3.712,181.311,213.991,197.530
0.097,5.853,3.728,3.728,181.254,214.022,197.494
0.099,5.910,3.741,3.741,181.209,214.044,197.466
0.100,5.951,3.751,3.751,181.176,214.058,197.445
0.101,5.979,3.758,3.758,181.154,214.065,197.430
0.103,5.997,3.762,3.762,181.139,214.066,197.420
0.104,6.007,3.764,3.764,181.132,214.064,197.413
0.106,6.014,3.764,3.764,181.131,214.058,197.409
0.107,6.022,3.764,3.764,181.133,214.052,197.407
0.109,6.031,3.764,3.764,181.139,214.044,197.404
0.110,6.041,3.767,3.767,181.146,214.038,197.400
0.112,6.050,3.772,3.772,181.152,214.034,197.394
0.113,6.060,3.780,3.780,181.156,214.033,197.386
0.114,6.071,3.790,3.790,181.156,214.035,197.375
0.116,6.089,3.803,3.803,181.149,214.042,197.360
0.117,6.116,3.817,3.817,181.134,214.054,197.341
0.119,6.154,3.832,3.832,181.108,214.071,197.318
0.120,6.208,3.847,3.847,181.070,214.095,197.290
0.122,6.278,3.862,3.862,181.017,214.126,197.256
0.123,6.367,3.877,3.877,180.947,214.165,197.216
0.125,6.478,3.896,3.896,180.859,214.213,197.169
0.126,6.611,3.920,3.920,180.751,214.270,197.116
0.128,6.765,3.953,3.953,180.625,214.335,197.056
0.129,6.934,3.997,3.997,180.485,214.406,196.992
0.130,7.114,4.055,4.055,180.336,214.480,196.926
0.132,7.298,4.129,4.129,180.182,214.557,196.858
0.133,7.483,4.219,4.219,180.028,214.633,196.791
0.135,7.663,4.319,4.319,179.877,214.707,196.727
0.136,7.832,4.421,4.421,179.735,214.776,196.666
0.138,7.987,4.521,4.521,179.604,214.838,196.611
0.139,8.121,4.611,4.611,179.491,214.892,196.563
0.141,8.230,4.685,4.685,179.399,214.934,196.525
0.142,8.310,4.737,4.737,179.330,214.965,196.496
0.143,8.363,4.766,4.766,179.284,214.984,196.477
0.145,8.395,4.775,4.775,179.256,214.994,196.466
0.146,8.409,4.770,4.770,179.243,214.997,196.463
0.148,8.412,4.754,4.754,179.241,214.995,196.465
0.149,8.423,4.733,4.733,179.247,214.989,196.472
0.151,8.439,4.711,4.711,179.256,214.982,196.483
0.152,8.456,4.691,4.691,179.266,214.976,196.495
0.154,8.471,4.678,4.678,179.273,214.973,196.509
0.155,8.485,4.669,4.669,179.272,214.975,196.523
0.157,8.504,4.665,4.665,179.261,214.983,196.535
0.158,8.534,4.664,4.664,179.237,214.999,196.545
0.159,8.579,4.666,4.666,179.202,215.026,196.553
0.161,8.638,4.670,4.670,179.157,215.063,196.559
0.162,8.711,4.677,4.677,179.104,215.113,196.562
0.164,8.797,4.684,4.684,179.045,215.176,196.564
0.165,8.898,4.691,4.692,178.981,215.255,196.563
0.167,9.014,4.699,4.699,178.915,215.349,196.560
0.168,9.145,4.705,4.705,178.847,215.461,196.555
0.170,9.291,4.710,4.710,178.780,215.592,196.548
0.171,9.455,4.712,4.712,178.716,215.742,196.539
0.172,9.638,4.712,4.712,178.656,215.914,196.528
0.174,9.837,4.708,4.708,178.601,216.105,196.516
0.175,10.050,4.702,4.701,178.551,216.312,196.503
0.177,10.272,4.693,4.693,178.506,216.528,196.489
0.178,10.497,4.683,4.682,178.466,216.749,196.475
0.180,10.721,4.671,4.670,178.430,216.971,196.463
0.181,10.940,4.658,4.658,178.398,217.187,196.451
0.183,11.148,4.644,4.644,178.371,217.393,196.442
0.184,11.341,4.630,4.631,178.347,217.584,196.435
0.186,11.513,4.616,4.617,178.328,217.755,196.432
0.187,11.660,4.602,4.604,178.312,217.901,196.432
0.188,11.777,4.589,4.590,178.300,218.017,196.437
0.190,11.867,4.576,4.577,178.290,218.106,196.445
0.191,11.937,4.565,4.565,178.281,218.176,196.453
0.193,11.995,4.554,4.554,178.273,218.232,196.459
0.194,12.048,4.548,4.546,178.262,218.284,196.461
0.196,12.104,4.551,4.547,178.249,218.339,196.455
0.197,12.172,4.566,4.561,178.232,218.403,196.440
0.199,12.262,4.598,4.593,178.208,218.485,196.413
0.200,12.380,4.653,4.648,178.178,218.592,196.372
0.201,12.536,4.734,4.732,178.139,218.731,196.313
0.203,12.738,4.844,4.848,178.091,218.910,196.234
0.204,12.991,4.983,4.993,178.031,219.134,196.133
0.206,13.290,5.143,5.159,177.962,219.400,196.014
0.207,13.625,5.317,5.337,177.884,219.696,195.881
0.209,13.984,5.498,5.518,177.800,220.016,195.738
0.210,14.359,5.679,5.695,177.710,220.348,195.589
0.212,14.738,5.852,5.858,177.617,220.684,195.441
0.213,15.112,6.011,5.998,177.523,221.015,195.296
0.214,15.469,6.153,6.116,177.429,221.332,195.160
0.216,15.800,6.280,6.214,177.336,221.625,195.037
0.217,16.095,6.391,6.297,177.247,221.885,194.932
0.219,16.343,6.488,6.367,177.163,222.104,194.850
0.220,16.538,6.571,6.430,177.085,222.274,194.793
0.222,16.687,6.641,6.488,177.012,222.399,194.759
0.223,16.797,6.698,6.545,176.945,222.486,194.747
0.225,16.881,6.744,6.602,176.880,222.539,194.753
0.226,16.951,6.781,6.658,176.818,222.563,194.775
0.228,17.021,6.810,6.712,176.758,222.565,194.810
0.229,17.098,6.832,6.764,176.697,222.550,194.855
0.230,17.183,6.849,6.812,176.636,222.524,194.908
0.232,17.274,6.863,6.855,176.573,222.492,194.965
0.233,17.368,6.875,6.892,176.508,222.459,195.024
0.235,17.463,6.886,6.923,176.438,222.431,195.083
0.236,17.558,6.896,6.947,176.365,222.412,195.139
0.238,17.651,6.906,6.962,176.288,222.400,195.192
0.239,17.744,6.916,6.967,176.211,222.395,195.242
0.241,17.834,6.926,6.962,176.133,222.396,195.289
0.242,17.922,6.936,6.946,176.057,222.400,195.332
0.243,18.004,6.948,6.918,175.985,222.408,195.371
0.245,18.081,6.960,6.880,175.916,222.418,195.405
0.246,18.151,6.972,6.835,175.854,222.429,195.435
0.248,18.212,6.984,6.789,175.800,222.439,195.460
0.249,18.263,6.994,6.743,175.754,222.449,195.480
0.251,18.302,7.002,6.703,175.719,222.456,195.495
0.252,18.329,7.008,6.671,175.694,222.460,195.505
0.254,18.345,7.010,6.651,175.679,222.462,195.510
0.255,18.353,7.010,6.642,175.671,222.462,195.512
0.257,18.355,7.009,6.643,175.669,222.461,195.511
0.258,18.360,7.007,6.649,175.673,222.459,195.508
0.259,18.369,7.006,6.660,175.681,222.457,195.504
0.261,18.380,7.007,6.672,175.690,222.454,195.500
0.262,18.392,7.011,6.683,175.701,222.452,195.496
0.264,18.403,7.019,6.691,175.712,222.451,195.493
0.265,18.412,7.029,6.694,175.721,222.452,195.492
0.267,18.419,7.038,6.695,175.727,222.454,195.494
0.268,18.425,7.041,6.691,175.729,222.457,195.499
0.270,18.433,7.037,6.685,175.728,222.462,195.505
0.271,18.443,7.022,6.676,175.722,222.466,195.513
0.272,18.457,6.993,6.664,175.712,222.470,195.521
0.274,18.474,6.947,6.650,175.698,222.472,195.529
0.275,18.495,6.887,6.634,175.678,222.473,195.537
0.277,18.521,6.818,6.617,175.653,222.471,195.543
0.278,18.552,6.745,6.599,175.622,222.465,195.547
0.280,18.590,6.674,6.582,175.586,222.456,195.549
0.281,18.635,6.609,6.566,175.543,222.441,195.547
0.283,18.688,6.556,6.552,175.495,222.422,195.541
0.284,18.748,6.519,6.540,175.440,222.398,195.532
0.286,18.814,6.496,6.529,175.380,222.373,195.520
0.287,18.885,6.482,6.518,175.316,222.346,195.506
0.288,18.959,6.475,6.506,175.248,222.321,195.491
0.290,19.035,6.469,6.490,175.177,222.299,195.474
0.291,19.113,6.460,6.471,175.103,222.281,195.457
0.293,19.192,6.445,6.446,175.027,222.270,195.441
0.294,19.271,6.420,6.414,174.950,222.266,195.425
0.296,19.350,6.384,6.376,174.872,222.272,195.411
0.297,19.430,6.341,6.331,174.794,222.290,195.399
0.299,19.514,6.290,6.282,174.717,222.319,195.389
0.300,19.604,6.234,6.228,174.636,222.359,195.380
0.301,19.703,6.174,6.172,174.551,222.408,195.371
0.303,19.811,6.112,6.112,174.458,222.463,195.359
0.304,19.932,6.048,6.050,174.355,222.524,195.343
0.306,20.065,5.984,5.986,174.240,222.587,195.322
0.307,20.214,5.918,5.920,174.109,222.651,195.294
0.309,20.380,5.849,5.852,173.960,222.715,195.257
0.310,20.565,5.779,5.781,173.791,222.776,195.210
0.312,20.774,5.706,5.707,173.599,222.832,195.151
0.313,21.009,5.630,5.630,173.381,222.882,195.079
0.314,21.270,5.551,5.550,173.139,222.925,194.994
0.316,21.552,5.469,5.468,172.876,222.962,194.897
0.317,21.852,5.388,5.386,172.598,222.995,194.792
0.319,22.162,5.307,5.306,172.309,223.026,194.679
0.320,22.480,5.230,5.228,172.016,223.056,194.563
0.322,22.798,5.156,5.156,171.722,223.086,194.445
0.323,23.112,5.089,5.089,171.433,223.118,194.326
0.325,23.416,5.029,5.030,171.154,223.153,194.211
0.326,23.705,4.978,4.980,170.890,223.194,194.100
0.328,23.974,4.938,4.941,170.646,223.241,193.997
0.329,24.219,4.909,4.913,170.426,223.296,193.902
0.330,24.440,4.895,4.898,170.232,223.360,193.818
0.332,24.642,4.895,4.898,170.062,223.436,193.742
0.333,24.828,4.913,4.913,169.914,223.526,193.673
0.335,25.005,4.947,4.943,169.786,223.632,193.610
0.336,25.180,4.992,4.984,169.676,223.754,193.553
0.338,25.359,5.042,5.030,169.582,223.897,193.499
0.339,25.548,5.089,5.075,169.503,224.060,193.447
0.341,25.752,5.127,5.113,169.435,224.247,193.397
0.342,25.977,5.147,5.138,169.377,224.458,193.347
0.343,26.227,5.144,5.145,169.328,224.697,193.295
0.345,26.502,5.113,5.128,169.285,224.964,193.242
0.346,26.801,5.061,5.092,169.248,225.256,193.187
0.348,27.118,4.997,5.044,169.216,225.566,193.131
0.349,27.448,4.929,4.989,169.191,225.890,193.076
0.351,27.783,4.867,4.932,169.171,226.220,193.021
0.352,28.120,4.820,4.880,169.157,226.553,192.969
0.354,28.451,4.796,4.838,169.149,226.880,192.919
0.355,28.772,4.802,4.810,169.147,227.198,192.874
0.357,29.076,4.830,4.795,169.150,227.499,192.833
0.358,29.358,4.871,4.787,169.160,227.779,192.799
0.359,29.612,4.916,4.784,169.174,228.031,192.771
0.361,29.835,4.956,4.782,169.195,228.251,192.751
0.362,30.027,4.981,4.777,169.220,228.442,192.737
0.364,30.193,4.982,4.765,169.248,228.605,192.728
0.365,30.336,4.955,4.744,169.278,228.745,192.724
0.367,30.460,4.904,4.717,169.309,228.865,192.721
0.368,30.566,4.837,4.686,169.340,228.967,192.720
0.370,30.659,4.764,4.654,169.370,229.054,192.720
0.371,30.740,4.692,4.625,169.397,229.131,192.717
0.372,30.813,4.630,4.602,169.420,229.200,192.713
0.374,30.880,4.585,4.588,169.437,229.264,192.704
0.375,30.945,4.562,4.584,169.449,229.327,192.690
0.377,31.011,4.560,4.590,169.454,229.389,192.671
0.378,31.078,4.572,4.603,169.453,229.452,192.647
0.380,31.146,4.596,4.621,169.447,229.514,192.619
0.381,31.214,4.627,4.643,169.438,229.574,192.590
0.383,31.280,4.660,4.667,169.426,229.632,192.559
0.384,31.344,4.691,4.690,169.413,229.686,192.528
0.386,31.405,4.717,4.711,169.399,229.737,192.499
0.387,31.460,4.737,4.729,169.385,229.783,192.473
0.388,31.508,4.754,4.745,169.374,229.824,192.450
0.390,31.548,4.766,4.759,169.364,229.859,192.432
0.391,31.579,4.774,4.770,169.359,229.887,192.420
0.393,31.601,4.780,4.778,169.358,229.908,192.414
0.394,31.619,4.783,4.783,169.359,229.926,192.413
0.396,31.635,4.784,4.786,169.364,229.941,192.413
0.397,31.652,4.785,4.787,169.370,229.957,192.414
0.399,31.671,4.785,4.788,169.378,229.975,192.413
0.400,31.695,4.788,4.790,169.386,229.997,192.408
0.401,31.726,4.793,4.794,169.394,230.025,192.399
0.403,31.767,4.801,4.802,169.401,230.062,192.382
0.404,31.822,4.815,4.815,169.407,230.110,192.356
0.406,31.893,4.834,4.834,169.410,230.170,192.319
0.407,31.982,4.859,4.858,169.411,230.245,192.269
0.409,32.090,4.888,4.888,169.409,230.333,192.207
0.410,32.213,4.923,4.923,169.404,230.433,192.136
0.412,32.348,4.962,4.962,169.397,230.542,192.057
0.413,32.492,5.005,5.005,169.388,230.657,191.972
0.414,32.640,5.052,5.052,169.378,230.777,191.884
0.416,32.791,5.102,5.102,169.367,230.898,191.794
0.417,32.941,5.154,5.154,169.355,231.018,191.705
0.419,33.086,5.206,5.206,169.343,231.134,191.620
0.420,33.224,5.257,5.257,169.332,231.245,191.539
0.422,33.351,5.306,5.306,169.320,231.348,191.466
0.423,33.464,5.351,5.351,169.309,231.441,191.401
0.425,33.564,5.391,5.391,169.299,231.523,191.346
0.426,33.651,5.425,5.425,169.290,231.596,191.299
0.428,33.727,5.453,5.453,169.282,231.660,191.259
0.429,33.793,5.477,5.477,169.274,231.717,191.226
0.430,33.850,5.496,5.496,169.266,231.767,191.199
0.432,33.899,5.512,5.512,169.259,231.810,191.178
0.433,33.941,5.524,5.524,169.252,231.848,191.161
0.435,33.977,5.534,5.534,169.245,231.881,191.147
0.436,34.008,5.543,5.542,169.239,231.910,191.137
0.438,34.036,5.549,5.548,169.233,231.936,191.129
0.439,34.061,5.553,5.552,169.226,231.959,191.123
0.441,34.084,5.556,5.555,169.220,231.980,191.119
0.442,34.105,5.557,5.556,169.214,232.000,191.115
0.443,34.124,5.557,5.557,169.207,232.018,191.113
0.445,34.143,5.556,5.557,169.201,232.035,191.111
0.446,34.161,5.554,5.556,169.195,232.052,191.110
0.448,34.178,5.552,5.555,169.189,232.068,191.110
0.449,34.196,5.550,5.554,169.182,232.085,191.110
0.451,34.214,5.549,5.553,169.176,232.102,191.109
0.452,34.233,5.550,5.553,169.170,232.120,191.109
0.454,34.253,5.553,5.555,169.164,232.139,191.107
0.455,34.275,5.558,5.557,169.157,232.160,191.105
0.457,34.301,5.567,5.561,169.148,232.184,191.102
0.458,34.333,5.577,5.567,169.137,232.214,191.097
0.459,34.374,5.589,5.575,169.120,232.250,191.089
0.461,34.425,5.601,5.586,169.097,232.295,191.078
0.462,34.489,5.613,5.599,169.067,232.349,191.064
0.464,34.568,5.623,5.616,169.028,232.415,191.045
0.465,34.664,5.631,5.637,168.979,232.494,191.022
0.467,34.779,5.639,5.661,168.917,232.588,190.994
0.468,34.916,5.649,5.689,168.843,232.697,190.959
0.470,35.077,5.667,5.720,168.754,232.825,190.919
0.471,35.258,5.696,5.754,168.653,232.967,190.873
0.472,35.453,5.741,5.791,168.544,233.122,190.824
0.474,35.655,5.806,5.831,168.431,233.282,190.776
0.475,35.858,5.895,5.873,168.318,233.445,190.731
0.477,36.054,6.005,5.915,168.211,233.605,190.691
0.478,36.238,6.123,5.954,168.114,233.757,190.659
0.480,36.402,6.237,5.986,168.031,233.897,190.637
0.481,36.542,6.333,6.007,167.967,234.021,190.629
0.483,36.653,6.398,6.012,167.926,234.124,190.637
0.484,36.735,6.420,6.000,167.913,234.200,190.664
0.486,36.804,6.387,5.964,167.930,234.247,190.711
0.487,36.882,6.298,5.908,167.973,234.268,190.773
0.488,36.973,6.172,5.839,168.033,234.268,190.842
0.490,37.068,6.024,5.766,168.098,234.254,190.910
0.491,37.156,5.872,5.696,168.159,234.232,190.969
0.493,37.222,5.734,5.637,168.207,234.209,191.009
0.494,37.256,5.626,5.598,168.232,234.191,191.023
0.496,37.279,5.566,5.587,168.223,234.184,191.003
0.497,37.361,5.555,5.604,168.173,234.195,190.941
0.499,37.518,5.585,5.643,168.069,234.230,190.827
0.500,37.767,5.642,5.696,167.904,234.294,190.653
0.501,38.115,5.716,5.758,167.670,234.394,190.415
0.503,38.551,5.796,5.821,167.376,234.523,190.121
0.504,39.058,5.870,5.877,167.032,234.677,189.781
0.506,39.619,5.927,5.921,166.652,234.849,189.405
0.507,40.217,5.965,5.952,166.246,235.033,189.006
0.509,40.836,5.990,5.975,165.826,235.223,188.594
0.510,41.457,6.009,5.995,165.403,235.412,188.180
0.512,42.064,6.028,6.017,164.989,235.595,187.775
0.513,42.641,6.054,6.047,164.596,235.765,187.389
0.514,43.169,6.093,6.091,164.235,235.916,187.035
0.516,43.632,6.152,6.153,163.917,236.042,186.722
0.517,44.021,6.229,6.233,163.650,236.140,186.457
0.519,44.341,6.318,6.322,163.429,236.212,186.237
0.520,44.600,6.411,6.415,163.250,236.261,186.057
0.522,44.805,6.502,6.505,163.106,236.291,185.913
0.523,44.964,6.582,6.583,162.994,236.305,185.802
0.525,45.085,6.644,6.644,162.907,236.307,185.717
0.526,45.176,6.681,6.681,162.841,236.299,185.656
0.528,45.243,6.694,6.693,162.791,236.285,185.613
0.529,45.295,6.688,6.687,162.751,236.268,185.585
0.530,45.338,6.669,6.667,162.716,236.251,185.566
0.532,45.377,6.641,6.641,162.681,236.238,185.553
0.533,45.416,6.613,6.612,162.645,236.231,185.543
0.535,45.453,6.588,6.587,162.608,236.228,185.535
0.536,45.490,6.572,6.572,162.572,236.229,185.529
0.538,45.524,6.566,6.567,162.538,236.233,185.525
0.539,45.555,6.569,6.569,162.509,236.240,185.522
0.541,45.581,6.576,6.576,162.484,236.249,185.519
0.542,45.602,6.585,6.585,162.466,236.259,185.517
0.543,45.616,6.593,6.593,162.457,236.270,185.515
0.545,45.628,6.598,6.598,162.457,236.281,185.512
0.546,45.644,6.597,6.597,162.469,236.291,185.509
0.548,45.670,6.591,6.591,162.493,236.300,185.504
0.549,45.705,6.580,6.580,162.527,236.308,185.498
0.551,45.745,6.567,6.567,162.567,236.314,185.492
0.552,45.785,6.554,6.554,162.606,236.318,185.486
0.554,45.820,6.542,6.542,162.640,236.321,185.481
0.555,45.845,6.533,6.533,162.665,236.322,185.478
0.557,45.855,6.530,6.530,162.674,236.322,185.477
0.558,45.865,6.530,6.530,162.664,236.320,185.479
0.559,45.901,6.530,6.530,162.629,236.316,185.485
0.561,45.966,6.529,6.529,162.565,236.310,185.496
0.562,46.067,6.522,6.522,162.466,236.302,185.511
0.564,46.207,6.508,6.508,162.328,236.293,185.532
0.565,46.381,6.482,6.482,162.156,236.282,185.558
0.567,46.582,6.443,6.443,161.958,236.269,185.589
0.568,46.803,6.392,6.392,161.740,236.255,185.622
0.570,47.037,6.334,6.334,161.509,236.239,185.659
0.571,47.277,6.273,6.273,161.273,236.221,185.696
0.572,47.515,6.213,6.213,161.038,236.203,185.735
0.574,47.745,6.159,6.159,160.813,236.183,185.773
0.575,47.959,6.115,6.115,160.603,236.163,185.810
0.577,48.150,6.086,6.086,160.417,236.141,185.845
0.578,48.311,6.070,6.070,160.261,236.119,185.877
0.580,48.437,6.065,6.065,160.139,236.096,185.905
0.581,48.534,6.067,6.067,160.048,236.074,185.930
0.583,48.606,6.074,6.074,159.983,236.054,185.950
0.584,48.657,6.082,6.082,159.936,236.037,185.966
0.586,48.693,6.087,6.087,159.904,236.026,185.976
0.587,48.718,6.088,6.088,159.880,236.020,185.982
0.588,48.739,6.083,6.083,159.859,236.023,185.983
0.590,48.766,6.073,6.073,159.836,236.034,185.979
0.591,48.806,6.057,6.057,159.804,236.056,185.968
