"T","Distance","Radius","FreeRadius","X","Y","Z"
0.000,0.000,1.345,1.345,185.088,210.316,199.870
0.002,0.201,1.442,1.442,185.232,210.387,199.748
0.003,0.400,1.538,1.538,185.373,210.457,199.627
0.005,0.594,1.632,1.632,185.512,210.525,199.509
0.006,0.782,1.724,1.724,185.647,210.591,199.396
0.008,0.962,1.812,1.812,185.777,210.653,199.288
0.009,1.131,1.895,1.895,185.899,210.711,199.187
0.011,1.287,1.973,1.973,186.013,210.763,199.094
0.012,1.429,2.045,2.045,186.118,210.810,199.011
0.014,1.553,2.108,2.108,186.211,210.849,198.939
0.015,1.659,2.163,2.163,186.292,210.881,198.879
0.017,1.743,2.208,2.208,186.360,210.904,198.833
0.018,1.806,2.242,2.242,186.412,210.917,198.802
0.020,1.851,2.264,2.264,186.452,210.923,198.781
0.021,1.882,2.273,2.273,186.480,210.922,198.768
0.023,1.904,2.271,2.271,186.498,210.916,198.758
0.024,1.922,2.263,2.263,186.509,210.907,198.746
0.026,1.942,2.254,2.254,186.513,210.895,198.729
0.027,1.971,2.246,2.246,186.514,210.884,198.704
0.029,2.011,2.245,2.245,186.512,210.873,198.664
0.030,2.068,2.256,2.256,186.511,210.866,198.608
0.032,2.146,2.281,2.281,186.510,210.862,198.530
0.033,2.250,2.319,2.319,186.513,210.865,198.427
0.035,2.381,2.368,2.368,186.521,210.874,198.296
0.036,2.537,2.428,2.428,186.533,210.889,198.141
0.038,2.713,2.495,2.495,186.548,210.910,197.968
0.039,2.901,2.569,2.569,186.566,210.935,197.781
0.041,3.098,2.646,2.646,186.586,210.963,197.587
0.042,3.298,2.726,2.726,186.606,210.993,197.391
0.044,3.495,2.807,2.807,186.626,211.025,197.197
0.046,3.684,2.888,2.888,186.645,211.056,197.012
0.047,3.858,2.967,2.967,186.662,211.087,196.841
0.049,4.014,3.042,3.042,186.677,211.115,196.689
0.050,4.144,3.114,3.114,186.688,211.141,196.562
0.052,4.246,3.178,3.178,186.695,211.163,196.463
0.053,4.321,3.236,3.236,186.698,211.181,196.390
0.055,4.372,3.284,3.284,186.698,211.195,196.341
0.056,4.403,3.321,3.321,186.696,211.205,196.312
0.058,4.416,3.345,3.345,186.692,211.211,196.301
0.059,4.422,3.356,3.356,186.687,211.213,196.303
0.061,4.437,3.351,3.351,186.682,211.211,196.317
0.062,4.461,3.329,3.329,186.676,211.204,196.339
0.064,4.490,3.295,3.295,186.672,211.193,196.366
0.065,4.523,3.254,3.254,186.669,211.178,196.395
0.067,4.557,3.208,3.208,186.668,211.159,196.423
0.068,4.591,3.163,3.163,186.670,211.136,196.447
0.070,4.623,3.124,3.124,186.675,211.111,196.467
0.071,4.653,3.094,3.094,186.682,211.086,196.482
0.073,4.679,3.076,3.076,186.691,211.064,196.492
0.074,4.699,3.068,3.068,186.703,211.047,196.496
0.076,4.716,3.071,3.071,186.717,211.038,196.494
0.077,4.735,3.082,3.082,186.733,211.038,196.485
0.079,4.762,3.100,3.100,186.751,211.051,196.469
0.080,4.803,3.124,3.124,186.770,211.078,196.445
0.082,4.861,3.154,3.154,186.791,211.122,196.413
0.083,4.939,3.187,3.187,186.814,211.185,196.373
0.085,5.038,3.222,3.222,186.838,211.268,196.325
0.086,5.155,3.257,3.257,186.864,211.368,196.269
0.088,5.286,3.290,3.290,186.892,211.480,196.207
0.090,5.426,3.321,3.321,186.922,211.600,196.142
0.091,5.571,3.347,3.347,186.954,211.724,196.075
0.093,5.716,3.367,3.367,186.989,211.848,196.007
0.094,5.858,3.384,3.384,187.026,211.968,195.940
0.096,5.993,3.400,3.400,187.067,212.079,195.877
0.097,6.115,3.417,3.417,187.111,212.177,195.817
0.099,6.223,3.438,3.438,187.159,212.257,195.764
0.100,6.314,3.465,3.465,187.211,212.316,195.719
0.102,6.389,3.501,3.501,187.266,212.352,195.682
0.103,6.455,3.546,3.546,187.324,212.366,195.654
0.105,6.518,3.597,3.597,187.384,212.364,195.633
0.106,6.581,3.651,3.651,187.443,212.348,195.617
0.108,6.645,3.705,3.705,187.501,212.324,195.607
0.109,6.707,3.757,3.757,187.556,212.296,195.600
0.111,6.767,3.804,3.804,187.607,212.266,195.596
0.112,6.819,3.843,3.843,187.653,212.240,195.593
0.114,6.863,3.872,3.872,187.691,212.220,195.591
0.115,6.895,3.894,3.894,187.722,212.213,195.589
0.117,6.918,3.907,3.907,187.744,212.220,195.585
0.118,6.946,3.911,3.911,187.755,212.245,195.578
0.120,6.987,3.908,3.908,187.759,212.285,195.570
0.121,7.039,3.897,3.897,187.757,212.336,195.561
0.123,7.100,3.879,3.879,187.753,212.396,195.552
0.124,7.165,3.857,3.857,187.748,212.461,195.544
0.126,7.232,3.834,3.834,187.746,212.528,195.538
0.127,7.297,3.815,3.815,187.749,212.592,195.535
0.129,7.357,3.802,3.802,187.759,212.652,195.536
0.131,7.412,3.800,3.800,187.778,212.702,195.541
0.132,7.463,3.811,3.811,187.811,212.741,195.552
0.134,7.519,3.836,3.836,187.858,212.765,195.568
0.135,7.586,3.870,3.870,187.921,212.772,195.592
0.137,7.669,3.909,3.909,187.998,212.765,195.622
0.138,7.765,3.950,3.950,188.086,212.750,195.657
0.140,7.871,3.987,3.987,188.182,212.730,195.695
0.141,7.983,4.017,4.017,188.284,212.710,195.737
0.143,8.097,4.035,4.035,188.388,212.693,195.782
0.144,8.211,4.042,4.042,188.493,212.686,195.827
0.146,8.322,4.040,4.040,188.594,212.691,195.873
0.147,8.430,4.028,4.028,188.689,212.714,195.918
0.149,8.537,4.010,4.010,188.776,212.758,195.961
0.150,8.648,3.985,3.985,188.851,212.828,196.002
0.152,8.770,3.955,3.955,188.913,212.926,196.040
0.153,8.906,3.923,3.923,188.963,213.048,196.074
0.155,9.055,3.890,3.890,189.002,213.189,196.104
0.156,9.214,3.859,3.859,189.031,213.343,196.129
0.158,9.380,3.833,3.833,189.053,213.507,196.150
0.159,9.549,3.815,3.815,189.068,213.674,196.165
0.161,9.715,3.806,3.806,189.078,213.840,196.176
0.162,9.875,3.811,3.811,189.084,213.999,196.181
0.164,10.023,3.828,3.828,189.088,214.147,196.180
0.165,10.155,3.854,3.854,189.090,214.279,196.172
0.167,10.266,3.886,3.886,189.094,214.390,196.159
0.168,10.355,3.920,3.920,189.098,214.476,196.139
0.170,10.425,3.954,3.954,189.104,214.542,196.117
0.171,10.478,3.984,3.984,189.110,214.591,196.098
0.173,10.518,4.007,4.007,189.116,214.629,196.084
0.175,10.549,4.020,4.020,189.122,214.658,196.081
0.176,10.577,4.021,4.021,189.127,214.684,196.092
0.178,10.616,4.005,4.005,189.130,214.710,196.121
0.179,10.677,3.972,3.972,189.132,214.741,196.173
0.181,10.764,3.917,3.917,189.130,214.781,196.251
0.182,10.885,3.839,3.839,189.126,214.835,196.359
0.184,11.045,3.736,3.736,189.118,214.906,196.502
0.185,11.246,3.617,3.617,189.107,214.997,196.681
0.187,11.482,3.487,3.487,189.091,215.105,196.890
0.188,11.747,3.354,3.354,189.072,215.227,197.124
0.190,12.032,3.227,3.227,189.049,215.359,197.376
0.191,12.332,3.111,3.111,189.023,215.500,197.639
0.193,12.638,3.014,3.014,188.993,215.644,197.908
0.194,12.945,2.938,2.938,188.960,215.790,198.176
0.196,13.246,2.879,2.879,188.923,215.934,198.437
0.197,13.532,2.834,2.834,188.883,216.072,198.685
0.199,13.799,2.798,2.798,188.840,216.202,198.914
0.200,14.038,2.768,2.768,188.794,216.320,199.117
0.202,14.246,2.741,2.741,188.746,216.424,199.290
0.203,14.425,2.712,2.712,188.695,216.515,199.436
0.205,14.578,2.683,2.683,188.643,216.593,199.556
0.206,14.708,2.654,2.654,188.591,216.661,199.654
0.208,14.817,2.627,2.627,188.539,216.717,199.732
0.209,14.909,2.605,2.605,188.488,216.765,199.793
0.211,14.986,2.587,2.587,188.440,216.804,199.838
0.212,15.051,2.576,2.576,188.394,216.836,199.872
0.214,15.105,2.573,2.573,188.353,216.861,199.895
0.215,15.150,2.575,2.575,188.315,216.880,199.911
0.217,15.187,2.581,2.581,188.283,216.895,199.922
0.219,15.217,2.591,2.591,188.257,216.906,199.930
0.220,15.241,2.601,2.601,188.235,216.914,199.937
0.222,15.260,2.610,2.610,188.218,216.920,199.942
0.223,15.275,2.617,2.617,188.204,216.925,199.947
0.225,15.289,2.621,2.621,188.193,216.930,199.953
0.226,15.302,2.622,2.622,188.184,216.936,199.960
0.228,15.316,2.620,2.620,188.175,216.943,199.968
0.229,15.333,2.614,2.614,188.167,216.953,199.980
0.231,15.354,2.605,2.605,188.158,216.966,199.994
0.232,15.382,2.592,2.592,188.148,216.983,200.013
0.234,15.417,2.576,2.576,188.136,217.005,200.037
0.235,15.460,2.556,2.556,188.120,217.033,200.067
0.237,15.513,2.533,2.533,188.100,217.068,200.101
0.238,15.577,2.508,2.508,188.074,217.111,200.140
0.240,15.652,2.480,2.480,188.042,217.164,200.182
0.241,15.739,2.450,2.450,188.001,217.226,200.228
0.243,15.841,2.419,2.419,187.951,217.300,200.277
0.244,15.959,2.386,2.386,187.890,217.386,200.328
0.246,16.093,2.355,2.355,187.817,217.486,200.381
0.247,16.246,2.327,2.327,187.730,217.600,200.436
0.249,16.419,2.305,2.305,187.629,217.729,200.491
0.250,16.614,2.290,2.290,187.512,217.875,200.546
0.252,16.831,2.287,2.287,187.380,218.037,200.602
0.253,17.062,2.295,2.295,187.235,218.210,200.656
0.255,17.304,2.315,2.315,187.084,218.390,200.710
0.256,17.549,2.345,2.345,186.928,218.572,200.764
0.258,17.792,2.381,2.381,186.774,218.752,200.815
0.259,18.026,2.421,2.421,186.624,218.924,200.866
0.261,18.245,2.462,2.462,186.482,219.085,200.914
0.263,18.443,2.501,2.501,186.354,219.229,200.960
0.264,18.615,2.537,2.537,186.243,219.351,201.004
0.266,18.753,2.568,2.568,186.152,219.448,201.045
0.267,18.854,2.594,2.594,186.087,219.514,201.083
0.269,18.916,2.614,2.614,186.048,219.549,201.118
0.270,18.953,2.629,2.629,186.031,219.560,201.148
0.272,18.978,2.637,2.637,186.029,219.554,201.173
0.273,19.004,2.639,2.639,186.039,219.538,201.191
0.275,19.030,2.635,2.635,186.054,219.521,201.202
0.276,19.049,2.629,2.629,186.069,219.509,201.205
0.278,19.061,2.625,2.625,186.079,219.511,201.198
0.279,19.089,2.625,2.625,186.078,219.534,201.182
0.281,19.150,2.634,2.634,186.062,219.585,201.154
0.282,19.252,2.655,2.655,186.024,219.672,201.114
0.284,19.407,2.691,2.691,185.960,219.802,201.061
0.285,19.616,2.742,2.742,185.868,219.978,200.995
0.287,19.871,2.805,2.805,185.752,220.191,200.919
0.288,20.159,2.874,2.874,185.616,220.432,200.836
0.290,20.471,2.947,2.947,185.465,220.691,200.749
0.291,20.796,3.019,3.019,185.305,220.958,200.660
0.293,21.122,3.087,3.087,185.139,221.226,200.573
0.294,21.440,3.148,3.148,184.973,221.484,200.490
0.296,21.738,3.201,3.201,184.811,221.723,200.414
0.297,22.007,3.246,3.246,184.659,221.934,200.349
0.299,22.234,3.284,3.284,184.520,222.107,200.297
0.300,22.412,3.315,3.315,184.400,222.233,200.261
0.302,22.540,3.340,3.340,184.301,222.311,200.242
0.303,22.628,3.359,3.359,184.221,222.349,200.236
0.305,22.693,3.372,3.372,184.158,222.358,200.240
0.307,22.744,3.383,3.383,184.108,222.350,200.252
0.308,22.786,3.395,3.395,184.071,222.336,200.267
0.310,22.819,3.409,3.409,184.044,222.325,200.282
0.311,22.842,3.430,3.430,184.024,222.330,200.293
0.313,22.877,3.459,3.459,184.010,222.360,200.298
0.314,22.945,3.501,3.501,183.998,222.427,200.293
0.316,23.062,3.557,3.557,183.987,222.542,200.274
0.317,23.239,3.632,3.632,183.974,222.716,200.238
0.319,23.480,3.731,3.731,183.958,222.950,200.184
0.320,23.774,3.857,3.857,183.938,223.235,200.115
0.322,24.109,4.014,4.014,183.916,223.559,200.033
0.323,24.472,4.206,4.206,183.890,223.909,199.942
0.325,24.852,4.434,4.434,183.862,224.276,199.845
0.326,25.237,4.685,4.685,183.831,224.646,199.743
0.328,25.614,4.943,4.943,183.797,225.007,199.642
0.329,25.973,5.190,5.190,183.761,225.350,199.542
0.331,26.299,5.411,5.411,183.722,225.660,199.448
0.332,26.583,5.590,5.590,183.681,225.928,199.363
0.334,26.813,5.708,5.708,183.637,226.140,199.288
0.335,26.984,5.764,5.764,183.592,226.294,199.226
0.337,27.106,5.769,5.769,183.545,226.394,199.176
0.338,27.189,5.739,5.739,183.497,226.449,199.137
0.340,27.248,5.689,5.689,183.448,226.466,199.108
0.341,27.303,5.635,5.635,183.398,226.453,199.088
0.343,27.366,5.592,5.592,183.349,226.415,199.077
0.344,27.438,5.574,5.574,183.300,226.362,199.072
0.346,27.517,5.582,5.582,183.253,226.301,199.073
0.347,27.595,5.609,5.609,183.206,226.238,199.080
0.349,27.668,5.649,5.649,183.162,226.181,199.090
0.351,27.730,5.695,5.695,183.119,226.138,199.105
0.352,27.781,5.740,5.740,183.079,226.112,199.121
0.354,27.825,5.777,5.777,183.041,226.102,199.140
0.355,27.867,5.801,5.801,183.003,226.105,199.160
0.357,27.913,5.813,5.813,182.966,226.121,199.182
0.358,27.964,5.816,5.816,182.929,226.147,199.204
0.360,28.020,5.810,5.810,182.891,226.182,199.227
0.361,28.082,5.800,5.800,182.851,226.223,199.250
0.363,28.148,5.787,5.787,182.809,226.269,199.272
0.364,28.218,5.774,5.774,182.764,226.317,199.294
0.366,28.290,5.761,5.761,182.715,226.367,199.315
0.367,28.364,5.750,5.750,182.663,226.415,199.334
0.369,28.439,5.740,5.740,182.606,226.461,199.351
0.370,28.515,5.731,5.731,182.546,226.505,199.366
0.372,28.590,5.723,5.723,182.485,226.547,199.380
0.373,28.664,5.717,5.717,182.424,226.586,199.392
0.375,28.736,5.712,5.712,182.363,226.623,199.403
0.376,28.804,5.708,5.708,182.304,226.657,199.412
0.378,28.868,5.706,5.706,182.248,226.687,199.419
0.379,28.927,5.703,5.703,182.197,226.715,199.425
0.381,28.979,5.702,5.702,182.151,226.740,199.430
0.382,29.024,5.700,5.700,182.112,226.762,199.433
0.384,29.059,5.698,5.698,182.082,226.780,199.435
0.385,29.086,5.696,5.696,182.059,226.795,199.436
0.387,29.106,5.693,5.693,182.043,226.807,199.435
0.388,29.120,5.690,5.690,182.033,226.816,199.434
0.390,29.130,5.687,5.687,182.027,226.824,199.432
0.392,29.137,5.684,5.684,182.024,226.830,199.430
0.393,29.143,5.681,5.681,182.021,226.834,199.427
0.395,29.149,5.679,5.679,182.019,226.838,199.423
0.396,29.155,5.677,5.677,182.015,226.841,199.420
0.398,29.163,5.675,5.675,182.009,226.845,199.417
0.399,29.175,5.673,5.673,181.998,226.848,199.414
0.401,29.193,5.669,5.669,181.981,226.853,199.411
0.402,29.216,5.663,5.663,181.958,226.859,199.408
0.404,29.246,5.656,5.656,181.929,226.865,199.406
0.405,29.282,5.645,5.645,181.894,226.874,199.405
0.407,29.324,5.633,5.633,181.854,226.884,199.403
0.408,29.370,5.617,5.617,181.809,226.895,199.402
0.410,29.422,5.599,5.599,181.759,226.909,199.402
0.411,29.478,5.578,5.578,181.705,226.924,199.401
0.413,29.539,5.555,5.555,181.647,226.942,199.401
0.414,29.604,5.530,5.530,181.585,226.962,199.401
0.416,29.672,5.503,5.503,181.520,226.985,199.401
0.417,29.744,5.477,5.477,181.453,227.010,199.401
0.419,29.819,5.454,5.454,181.383,227.038,199.402
0.420,29.895,5.438,5.438,181.313,227.067,199.403
0.422,29.970,5.430,5.430,181.244,227.097,199.406
0.423,30.044,5.434,5.434,181.177,227.126,199.410
0.425,30.113,5.452,5.452,181.114,227.155,199.416
0.426,30.177,5.483,5.484,181.057,227.181,199.425
0.428,30.234,5.524,5.524,181.006,227.205,199.437
0.429,30.283,5.568,5.569,180.964,227.224,199.453
0.431,30.323,5.612,5.612,180.932,227.239,199.472
0.432,30.357,5.650,5.650,180.911,227.249,199.496
0.434,30.386,5.677,5.677,180.902,227.252,199.524
0.436,30.419,5.689,5.688,180.905,227.250,199.557
0.437,30.454,5.686,5.685,180.914,227.244,199.590
0.439,30.487,5.670,5.669,180.924,227.238,199.621
0.440,30.515,5.645,5.643,180.928,227.234,199.648
0.442,30.535,5.612,5.611,180.923,227.235,199.667
0.443,30.559,5.574,5.573,180.902,227.244,199.677
0.445,30.604,5.534,5.534,180.861,227.262,199.673
0.446,30.681,5.493,5.495,180.793,227.293,199.653
0.448,30.797,5.453,5.457,180.694,227.340,199.614
0.449,30.959,5.417,5.423,180.559,227.404,199.554
0.451,31.174,5.387,5.393,180.381,227.490,199.470
0.452,31.439,5.363,5.368,180.162,227.595,199.362
0.454,31.746,5.348,5.351,179.910,227.716,199.235
0.455,32.085,5.344,5.341,179.633,227.850,199.095
0.457,32.444,5.350,5.340,179.338,227.992,198.946
0.458,32.814,5.363,5.347,179.034,228.139,198.794
0.460,33.185,5.381,5.360,178.729,228.285,198.642
0.461,33.545,5.401,5.378,178.432,228.428,198.497
0.463,33.886,5.419,5.402,178.149,228.563,198.363
0.464,34.197,5.433,5.429,177.890,228.686,198.245
0.466,34.467,5.441,5.459,177.661,228.794,198.149
0.467,34.687,5.442,5.491,177.472,228.881,198.078
0.469,34.855,5.441,5.522,177.324,228.948,198.035
0.470,34.978,5.438,5.550,177.213,228.997,198.014
0.472,35.065,5.436,5.574,177.133,229.030,198.012
0.473,35.122,5.437,5.592,177.080,229.048,198.025
0.475,35.162,5.445,5.602,177.049,229.056,198.049
0.476,35.196,5.458,5.604,177.035,229.055,198.079
0.478,35.231,5.477,5.598,177.033,229.048,198.113
0.480,35.266,5.499,5.589,177.038,229.036,198.146
0.481,35.297,5.521,5.578,177.046,229.023,198.173
0.483,35.320,5.541,5.569,177.052,229.011,198.192
0.484,35.331,5.557,5.563,177.050,229.002,198.197
0.486,35.345,5.567,5.564,177.040,228.997,198.188
0.487,35.373,5.570,5.571,177.020,228.995,198.168
0.489,35.414,5.566,5.581,176.993,228.995,198.138
0.490,35.464,5.559,5.588,176.959,228.996,198.102
0.492,35.522,5.547,5.591,176.918,228.998,198.061
0.493,35.585,5.534,5.585,176.872,228.999,198.017
0.495,35.652,5.519,5.566,176.821,228.998,197.974
0.496,35.720,5.505,5.532,176.766,228.995,197.934
0.498,35.788,5.491,5.484,176.708,228.989,197.898
0.499,35.856,5.479,5.426,176.648,228.978,197.870
0.501,35.923,5.469,5.363,176.585,228.962,197.851
0.502,35.991,5.462,5.298,176.522,228.940,197.842
0.504,36.061,5.458,5.235,176.456,228.916,197.841
0.505,36.135,5.459,5.178,176.387,228.889,197.846
0.507,36.212,5.463,5.130,176.316,228.862,197.856
0.508,36.292,5.465,5.089,176.241,228.836,197.867
0.510,36.376,5.462,5.052,176.161,228.812,197.878
0.511,36.463,5.447,5.018,176.077,228.792,197.888
0.513,36.553,5.417,4.982,175.988,228.778,197.894
0.514,36.648,5.365,4.945,175.893,228.771,197.895
0.516,36.750,5.288,4.902,175.792,228.773,197.888
0.517,36.860,5.186,4.854,175.684,228.784,197.872
0.519,36.979,5.068,4.802,175.570,228.806,197.845
0.520,37.108,4.942,4.748,175.449,228.837,197.811
0.522,37.246,4.815,4.693,175.324,228.876,197.768
0.524,37.392,4.696,4.639,175.195,228.923,197.718
0.525,37.544,4.592,4.587,175.064,228.976,197.664
0.527,37.702,4.511,4.538,174.930,229.035,197.604
0.528,37.864,4.451,4.493,174.794,229.098,197.541
0.530,38.028,4.408,4.452,174.659,229.164,197.475
0.531,38.194,4.379,4.416,174.524,229.233,197.409
0.533,38.359,4.360,4.384,174.390,229.303,197.341
0.534,38.522,4.346,4.356,174.259,229.373,197.275
0.536,38.682,4.335,4.333,174.131,229.443,197.210
0.537,38.837,4.324,4.315,174.008,229.512,197.147
0.539,38.986,4.312,4.300,173.890,229.580,197.086
0.540,39.127,4.302,4.290,173.778,229.644,197.027
0.542,39.260,4.292,4.283,173.674,229.706,196.972
0.543,39.382,4.285,4.280,173.579,229.763,196.921
0.545,39.493,4.281,4.279,173.494,229.816,196.874
0.546,39.592,4.280,4.281,173.419,229.864,196.830
0.548,39.676,4.283,4.286,173.356,229.905,196.792
0.549,39.745,4.288,4.291,173.307,229.940,196.759
0.551,39.797,4.295,4.298,173.271,229.967,196.732
0.552,39.834,4.303,4.305,173.248,229.987,196.711
0.554,39.859,4.311,4.313,173.237,230.000,196.694
0.555,39.874,4.319,4.319,173.235,230.009,196.682
0.557,39.884,4.325,4.325,173.240,230.015,196.674
0.558,39.896,4.329,4.328,173.250,230.017,196.670
0.560,39.909,4.331,4.330,173.264,230.018,196.670
0.561,39.924,4.331,4.330,173.278,230.019,196.671
0.563,39.938,4.328,4.328,173.292,230.021,196.675
0.564,39.950,4.323,4.322,173.302,230.025,196.681
0.566,39.961,4.314,4.314,173.307,230.032,196.688
0.568,39.975,4.302,4.302,173.305,230.043,196.695
0.569,39.996,4.288,4.288,173.293,230.060,196.702
0.571,40.030,4.271,4.272,173.269,230.084,196.706
0.572,40.081,4.254,4.254,173.230,230.116,196.705
0.574,40.153,4.236,4.236,173.174,230.159,196.698
0.575,40.249,4.217,4.218,173.097,230.214,196.682
0.577,40.373,4.200,4.200,172.997,230.282,196.654
0.578,40.528,4.186,4.186,172.871,230.365,196.614
0.580,40.720,4.180,4.179,172.717,230.465,196.560
0.581,40.950,4.186,4.184,172.533,230.582,196.488
0.583,41.223,4.208,4.206,172.314,230.719,196.397
0.584,41.543,4.250,4.249,172.059,230.876,196.285
0.586,41.904,4.317,4.317,171.772,231.053,196.155
0.587,42.298,4.412,4.413,171.461,231.243,196.009
0.589,42.712,4.529,4.533,171.133,231.443,195.852
0.590,43.138,4.664,4.669,170.797,231.647,195.689
0.592,43.564,4.808,4.814,170.462,231.851,195.523
0.593,43.980,4.957,4.962,170.135,232.050,195.360
0.595,44.376,5.102,5.105,169.825,232.240,195.202
0.596,44.741,5.237,5.236,169.540,232.414,195.056
0.598,45.065,5.359,5.350,169.288,232.570,194.924
0.599,45.338,5.469,5.448,169.077,232.701,194.811
0.601,45.549,5.567,5.529,168.916,232.803,194.721
0.602,45.699,5.656,5.593,168.804,232.877,194.655
0.604,45.795,5.737,5.641,168.734,232.927,194.609
0.605,45.847,5.811,5.673,168.701,232.955,194.581
0.607,45.865,5.880,5.688,168.698,232.966,194.568
0.608,45.885,5.942,5.690,168.718,232.964,194.566
0.610,45.925,5.994,5.681,168.755,232.953,194.574
0.612,45.978,6.031,5.665,168.803,232.935,194.589
0.613,46.036,6.049,5.644,168.856,232.916,194.606
0.615,46.092,6.045,5.622,168.906,232.899,194.625
0.616,46.138,6.016,5.602,168.947,232.888,194.641
0.618,46.167,5.958,5.588,168.973,232.886,194.653
0.619,46.182,5.881,5.577,168.984,232.894,194.659
