"T","Distance","Radius","FreeRadius","X","Y","Z"
0.000,0.000,2.168,2.168,172.049,192.062,197.835
0.001,0.071,2.173,2.173,172.111,192.037,197.860
0.003,0.144,2.179,2.179,172.174,192.012,197.887
0.004,0.219,2.187,2.187,172.239,191.988,197.913
0.006,0.296,2.200,2.200,172.308,191.964,197.941
0.007,0.378,2.219,2.219,172.382,191.942,197.970
0.008,0.466,2.244,2.244,172.461,191.922,198.000
0.010,0.560,2.278,2.278,172.548,191.903,198.032
0.011,0.663,2.321,2.321,172.643,191.887,198.067
0.013,0.774,2.373,2.373,172.747,191.873,198.104
0.014,0.897,2.433,2.433,172.863,191.862,198.143
0.015,1.031,2.499,2.499,172.990,191.854,198.186
0.017,1.176,2.571,2.571,173.127,191.849,198.232
0.018,1.330,2.647,2.647,173.273,191.847,198.279
0.020,1.488,2.725,2.725,173.424,191.847,198.329
0.021,1.649,2.805,2.805,173.577,191.849,198.379
0.022,1.810,2.885,2.885,173.730,191.853,198.429
0.024,1.967,2.963,2.963,173.879,191.857,198.479
0.025,2.118,3.037,3.037,174.021,191.862,198.528
0.027,2.259,3.105,3.105,174.154,191.867,198.574
0.028,2.387,3.165,3.165,174.275,191.872,198.619
0.029,2.500,3.216,3.216,174.380,191.877,198.660
0.031,2.596,3.254,3.254,174.468,191.880,198.697
0.032,2.677,3.282,3.282,174.541,191.883,198.732
0.034,2.743,3.299,3.299,174.599,191.885,198.763
0.035,2.798,3.311,3.311,174.645,191.887,198.793
0.037,2.843,3.318,3.318,174.681,191.888,198.821
0.038,2.882,3.323,3.323,174.708,191.890,198.849
0.039,2.916,3.330,3.330,174.729,191.891,198.876
0.041,2.948,3.340,3.340,174.746,191.893,198.903
0.042,2.980,3.355,3.355,174.759,191.896,198.931
0.044,3.013,3.372,3.372,174.772,191.899,198.961
0.045,3.048,3.391,3.391,174.786,191.903,198.993
0.046,3.085,3.408,3.408,174.801,191.908,199.027
0.048,3.123,3.421,3.421,174.817,191.913,199.061
0.049,3.162,3.429,3.429,174.834,191.919,199.096
0.051,3.199,3.429,3.429,174.851,191.924,199.129
0.052,3.235,3.420,3.420,174.867,191.928,199.160
0.053,3.267,3.403,3.403,174.882,191.931,199.188
0.055,3.295,3.382,3.382,174.895,191.933,199.213
0.056,3.317,3.358,3.358,174.906,191.933,199.232
0.058,3.333,3.334,3.334,174.914,191.930,199.246
0.059,3.343,3.313,3.313,174.920,191.925,199.252
0.060,3.351,3.296,3.296,174.921,191.918,199.252
0.062,3.361,3.287,3.287,174.921,191.909,199.247
0.063,3.373,3.284,3.284,174.920,191.901,199.238
0.065,3.384,3.285,3.285,174.919,191.896,199.228
0.066,3.393,3.290,3.290,174.921,191.894,199.219
0.067,3.402,3.297,3.297,174.925,191.899,199.214
0.069,3.417,3.304,3.304,174.934,191.911,199.213
0.070,3.443,3.310,3.310,174.949,191.932,199.220
0.072,3.486,3.313,3.313,174.971,191.964,199.236
0.073,3.547,3.314,3.314,175.002,192.009,199.264
0.074,3.629,3.312,3.312,175.042,192.069,199.305
0.076,3.732,3.309,3.309,175.091,192.140,199.358
0.077,3.848,3.304,3.304,175.147,192.222,199.421
0.079,3.975,3.300,3.300,175.206,192.308,199.491
0.080,4.106,3.296,3.296,175.268,192.397,199.565
0.081,4.236,3.293,3.293,175.328,192.485,199.640
0.083,4.361,3.292,3.292,175.385,192.568,199.714
0.084,4.475,3.291,3.291,175.437,192.642,199.783
0.086,4.573,3.291,3.291,175.480,192.705,199.845
0.087,4.651,3.291,3.291,175.513,192.752,199.897
0.088,4.703,3.291,3.291,175.533,192.780,199.936
0.090,4.730,3.290,3.290,175.540,192.788,199.961
0.091,4.746,3.288,3.288,175.536,192.781,199.975
0.093,4.766,3.285,3.285,175.526,192.764,199.979
0.094,4.790,3.281,3.281,175.513,192.743,199.978
0.096,4.813,3.277,3.277,175.502,192.723,199.974
0.097,4.827,3.273,3.273,175.497,192.711,199.970
0.098,4.831,3.269,3.269,175.500,192.711,199.970
0.100,4.857,3.266,3.266,175.517,192.729,199.975
0.101,4.913,3.264,3.264,175.551,192.772,199.989
0.103,5.007,3.264,3.264,175.606,192.844,200.015
0.104,5.146,3.266,3.266,175.686,192.950,200.056
0.105,5.326,3.271,3.271,175.789,193.088,200.110
0.107,5.540,3.279,3.279,175.911,193.251,200.176
0.108,5.779,3.290,3.290,176.048,193.432,200.249
0.110,6.034,3.305,3.305,176.195,193.625,200.329
0.111,6.298,3.325,3.325,176.350,193.822,200.411
0.112,6.561,3.350,3.350,176.507,194.017,200.492
0.114,6.816,3.379,3.379,176.662,194.203,200.572
0.115,7.055,3.411,3.411,176.812,194.373,200.645
0.117,7.268,3.443,3.443,176.952,194.520,200.711
0.118,7.449,3.476,3.476,177.079,194.637,200.765
0.119,7.594,3.506,3.506,177.189,194.722,200.807
0.121,7.708,3.534,3.534,177.284,194.777,200.838
0.122,7.799,3.557,3.557,177.366,194.807,200.860
0.124,7.872,3.576,3.576,177.438,194.816,200.875
0.125,7.936,3.590,3.590,177.500,194.808,200.885
0.126,7.995,3.601,3.601,177.555,194.788,200.892
0.128,8.053,3.609,3.609,177.605,194.760,200.898
0.129,8.109,3.614,3.614,177.652,194.728,200.905
0.131,8.165,3.616,3.616,177.696,194.697,200.914
0.132,8.219,3.617,3.617,177.742,194.670,200.928
0.133,8.274,3.616,3.616,177.789,194.652,200.949
0.135,8.331,3.612,3.612,177.839,194.643,200.975
0.136,8.393,3.605,3.605,177.892,194.641,201.006
0.138,8.459,3.594,3.594,177.948,194.645,201.042
0.139,8.530,3.577,3.577,178.007,194.654,201.080
0.140,8.604,3.555,3.555,178.069,194.665,201.119
0.142,8.682,3.526,3.526,178.134,194.677,201.159
0.143,8.761,3.491,3.491,178.203,194.689,201.199
0.145,8.843,3.452,3.452,178.274,194.699,201.236
0.146,8.926,3.411,3.411,178.350,194.705,201.271
0.147,9.011,3.369,3.369,178.429,194.707,201.301
0.149,9.097,3.330,3.330,178.511,194.702,201.327
0.150,9.182,3.295,3.295,178.592,194.693,201.349
0.152,9.264,3.266,3.266,178.672,194.679,201.366
0.153,9.342,3.245,3.245,178.746,194.663,201.380
0.154,9.412,3.232,3.232,178.812,194.643,201.391
0.156,9.472,3.226,3.226,178.868,194.622,201.398
0.157,9.520,3.227,3.227,178.911,194.599,201.403
0.159,9.555,3.233,3.233,178.937,194.577,201.406
0.160,9.579,3.246,3.246,178.946,194.555,201.407
0.162,9.603,3.263,3.263,178.933,194.534,201.407
0.163,9.644,3.285,3.285,178.897,194.516,201.406
0.164,9.699,3.307,3.307,178.843,194.500,201.404
0.166,9.762,3.328,3.328,178.782,194.487,201.401
0.167,9.824,3.343,3.343,178.720,194.478,201.399
0.169,9.877,3.350,3.350,178.668,194.472,201.397
0.170,9.912,3.344,3.344,178.633,194.469,201.395
0.171,9.921,3.322,3.322,178.624,194.471,201.395
0.173,9.948,3.282,3.282,178.650,194.477,201.396
0.174,10.019,3.227,3.227,178.720,194.488,201.399
0.176,10.142,3.162,3.162,178.842,194.504,201.404
0.177,10.327,3.094,3.094,179.025,194.526,201.411
0.178,10.573,3.029,3.029,179.270,194.552,201.421
0.180,10.869,2.972,2.972,179.564,194.583,201.433
0.181,11.204,2.931,2.931,179.896,194.617,201.447
0.183,11.564,2.910,2.910,180.254,194.655,201.462
0.184,11.937,2.911,2.911,180.625,194.694,201.478
0.185,12.311,2.928,2.928,180.997,194.735,201.494
0.187,12.674,2.956,2.956,181.357,194.777,201.511
0.188,13.013,2.992,2.992,181.693,194.818,201.527
0.190,13.317,3.030,3.030,181.994,194.858,201.542
0.191,13.572,3.066,3.066,182.246,194.896,201.556
0.192,13.769,3.095,3.095,182.439,194.932,201.568
0.194,13.913,3.114,3.114,182.579,194.966,201.579
0.195,14.013,3.126,3.126,182.672,195.000,201.588
0.197,14.080,3.134,3.134,182.729,195.034,201.594
0.198,14.127,3.139,3.139,182.758,195.071,201.598
0.199,14.167,3.143,3.143,182.768,195.110,201.600
0.201,14.210,3.150,3.150,182.767,195.153,201.600
0.202,14.259,3.161,3.161,182.765,195.201,201.596
0.204,14.314,3.177,3.177,182.770,195.256,201.590
0.205,14.381,3.198,3.198,182.791,195.319,201.580
0.206,14.466,3.224,3.224,182.836,195.390,201.568
0.208,14.574,3.252,3.252,182.908,195.469,201.552
0.209,14.702,3.282,3.282,183.001,195.554,201.534
0.211,14.844,3.314,3.314,183.109,195.643,201.513
0.212,14.993,3.345,3.345,183.226,195.734,201.490
0.213,15.144,3.376,3.376,183.345,195.824,201.465
0.215,15.291,3.404,3.404,183.460,195.910,201.438
0.216,15.426,3.430,3.430,183.565,195.991,201.410
0.218,15.545,3.452,3.452,183.653,196.065,201.381
0.219,15.640,3.469,3.469,183.719,196.128,201.352
0.221,15.710,3.481,3.481,183.756,196.179,201.322
0.222,15.757,3.487,3.487,183.760,196.215,201.292
0.223,15.799,3.486,3.486,183.738,196.237,201.264
0.225,15.845,3.478,3.478,183.700,196.247,201.240
0.226,15.893,3.466,3.466,183.656,196.244,201.221
0.228,15.936,3.452,3.452,183.616,196.231,201.210
0.229,15.971,3.437,3.437,183.591,196.207,201.208
0.230,16.005,3.424,3.424,183.591,196.175,201.218
0.232,16.062,3.413,3.413,183.625,196.135,201.241
0.233,16.162,3.407,3.407,183.704,196.087,201.279
0.235,16.317,3.409,3.409,183.838,196.034,201.335
0.236,16.537,3.421,3.421,184.037,195.975,201.409
0.237,16.823,3.447,3.447,184.300,195.912,201.502
0.239,17.164,3.489,3.489,184.616,195.844,201.610
0.240,17.547,3.552,3.552,184.973,195.772,201.731
0.242,17.961,3.637,3.637,185.358,195.695,201.860
0.243,18.394,3.749,3.749,185.761,195.614,201.994
0.244,18.833,3.885,3.885,186.169,195.527,202.131
0.246,19.266,4.040,4.040,186.571,195.436,202.266
0.247,19.682,4.207,4.207,186.953,195.340,202.398
0.249,20.068,4.379,4.379,187.305,195.239,202.521
0.250,20.414,4.550,4.550,187.614,195.133,202.634
0.251,20.711,4.711,4.711,187.871,195.022,202.734
0.253,20.963,4.857,4.857,188.080,194.910,202.820
0.254,21.176,4.984,4.984,188.244,194.798,202.896
0.256,21.355,5.091,5.091,188.371,194.691,202.962
0.257,21.503,5.180,5.180,188.465,194.591,203.020
0.258,21.627,5.252,5.252,188.531,194.501,203.072
0.260,21.727,5.310,5.310,188.576,194.425,203.119
0.261,21.806,5.353,5.353,188.604,194.365,203.162
0.263,21.866,5.384,5.384,188.622,194.325,203.204
0.264,21.913,5.403,5.403,188.634,194.307,203.245
0.265,21.958,5.412,5.412,188.646,194.316,203.288
0.267,22.015,5.412,5.412,188.661,194.349,203.332
0.268,22.088,5.405,5.405,188.680,194.403,203.377
0.270,22.175,5.391,5.391,188.702,194.475,203.421
0.271,22.275,5.371,5.371,188.730,194.561,203.464
0.272,22.384,5.348,5.348,188.763,194.657,203.504
0.274,22.499,5.321,5.321,188.803,194.759,203.540
0.275,22.618,5.293,5.293,188.849,194.863,203.572
0.277,22.737,5.265,5.265,188.903,194.966,203.599
0.278,22.855,5.237,5.237,188.965,195.064,203.618
0.279,22.969,5.212,5.212,189.036,195.153,203.631
0.281,23.080,5.190,5.190,189.116,195.230,203.635
0.282,23.191,5.173,5.173,189.205,195.296,203.633
0.284,23.303,5.162,5.162,189.302,195.353,203.625
0.285,23.418,5.156,5.156,189.405,195.401,203.615
0.287,23.536,5.154,5.154,189.515,195.444,203.602
0.288,23.658,5.154,5.154,189.630,195.481,203.590
0.289,23.783,5.153,5.153,189.749,195.515,203.579
0.291,23.910,5.150,5.150,189.872,195.548,203.572
0.292,24.041,5.144,5.144,189.999,195.580,203.570
0.294,24.173,5.131,5.131,190.127,195.613,203.575
0.295,24.309,5.113,5.113,190.257,195.649,203.588
0.296,24.446,5.089,5.089,190.387,195.688,203.609
0.298,24.584,5.062,5.062,190.516,195.729,203.637
0.299,24.721,5.032,5.032,190.642,195.772,203.670
0.301,24.856,5.002,5.002,190.764,195.815,203.707
0.302,24.986,4.972,4.972,190.881,195.857,203.745
0.303,25.110,4.943,4.943,190.992,195.899,203.784
0.305,25.226,4.917,4.917,191.094,195.938,203.822
0.306,25.332,4.895,4.895,191.187,195.975,203.856
0.308,25.426,4.876,4.876,191.269,196.008,203.886
0.309,25.505,4.860,4.860,191.339,196.037,203.911
0.310,25.569,4.849,4.849,191.396,196.061,203.928
0.312,25.620,4.842,4.842,191.441,196.082,203.939
0.313,25.659,4.840,4.840,191.475,196.099,203.945
0.315,25.688,4.843,4.843,191.499,196.115,203.948
0.316,25.710,4.849,4.849,191.515,196.131,203.949
0.317,25.728,4.855,4.855,191.523,196.147,203.949
0.319,25.746,4.861,4.861,191.525,196.164,203.949
0.320,25.766,4.863,4.863,191.522,196.185,203.951
0.322,25.792,4.861,4.861,191.515,196.209,203.957
0.323,25.825,4.851,4.851,191.505,196.239,203.966
0.324,25.865,4.832,4.832,191.494,196.274,203.981
0.326,25.912,4.806,4.806,191.484,196.315,204.002
0.327,25.964,4.774,4.774,191.477,196.360,204.026
0.329,26.019,4.738,4.738,191.477,196.409,204.052
0.330,26.076,4.702,4.702,191.486,196.459,204.079
0.331,26.137,4.666,4.666,191.507,196.509,204.105
0.333,26.202,4.633,4.633,191.543,196.558,204.130
0.334,26.277,4.605,4.605,191.597,196.605,204.150
0.336,26.364,4.581,4.581,191.672,196.648,204.166
0.337,26.470,4.562,4.562,191.770,196.686,204.175
0.338,26.599,4.544,4.544,191.895,196.717,204.176
0.340,26.752,4.528,4.528,192.046,196.741,204.169
0.341,26.925,4.511,4.511,192.218,196.758,204.153
0.343,27.111,4.493,4.493,192.402,196.768,204.131
0.344,27.304,4.472,4.472,192.593,196.771,204.103
0.346,27.495,4.449,4.449,192.781,196.768,204.070
0.347,27.679,4.426,4.426,192.961,196.759,204.034
0.348,27.848,4.405,4.406,193.125,196.745,203.995
0.350,27.995,4.390,4.390,193.265,196.725,203.954
0.351,28.114,4.381,4.382,193.374,196.699,203.914
0.353,28.202,4.383,4.383,193.446,196.669,203.874
0.354,28.260,4.397,4.397,193.473,196.635,203.835
0.355,28.312,4.422,4.421,193.462,196.599,203.800
0.357,28.371,4.452,4.451,193.426,196.563,203.771
0.358,28.433,4.481,4.480,193.378,196.531,203.748
0.360,28.489,4.500,4.499,193.329,196.505,203.735
0.361,28.528,4.504,4.503,193.295,196.489,203.732
0.362,28.541,4.485,4.485,193.286,196.486,203.742
0.364,28.583,4.437,4.437,193.317,196.499,203.767
0.365,28.680,4.356,4.357,193.400,196.530,203.809
0.367,28.849,4.250,4.253,193.548,196.583,203.868
0.368,29.101,4.131,4.135,193.774,196.661,203.948
0.369,29.441,4.009,4.015,194.082,196.763,204.049
0.371,29.856,3.894,3.902,194.461,196.887,204.165
0.372,30.331,3.799,3.807,194.896,197.028,204.294
0.374,30.849,3.732,3.741,195.371,197.180,204.432
0.375,31.395,3.704,3.712,195.874,197.340,204.573
0.376,31.954,3.711,3.719,196.390,197.503,204.713
0.378,32.509,3.748,3.755,196.904,197.663,204.850
0.379,33.045,3.810,3.815,197.402,197.816,204.977
0.381,33.547,3.890,3.893,197.869,197.959,205.092
0.382,33.999,3.983,3.985,198.291,198.085,205.190
0.383,34.386,4.084,4.084,198.656,198.191,205.267
0.385,34.710,4.185,4.185,198.963,198.276,205.324
0.386,34.976,4.285,4.284,199.218,198.343,205.364
0.388,35.193,4.378,4.377,199.427,198.392,205.390
0.389,35.366,4.462,4.461,199.596,198.426,205.405
0.390,35.502,4.534,4.533,199.731,198.445,205.412
0.392,35.610,4.590,4.590,199.838,198.452,205.414
0.393,35.696,4.627,4.627,199.924,198.448,205.413
0.395,35.767,4.642,4.642,199.994,198.435,205.414
0.396,35.830,4.636,4.636,200.054,198.415,205.418
0.397,35.894,4.617,4.617,200.110,198.388,205.429
0.399,35.960,4.591,4.591,200.166,198.357,205.448
0.400,36.027,4.564,4.564,200.221,198.327,205.471
0.402,36.091,4.544,4.543,200.274,198.301,205.496
0.403,36.148,4.537,4.536,200.323,198.282,205.518
0.404,36.197,4.549,4.549,200.368,198.275,205.535
0.406,36.237,4.583,4.583,200.406,198.284,205.544
0.407,36.279,4.630,4.631,200.438,198.312,205.540
0.409,36.339,4.682,4.684,200.461,198.364,205.521
0.410,36.428,4.731,4.735,200.474,198.443,205.482
0.412,36.553,4.769,4.774,200.476,198.553,205.422
0.413,36.721,4.787,4.795,200.467,198.697,205.337
0.414,36.927,4.778,4.788,200.447,198.873,205.230
0.416,37.167,4.736,4.749,200.418,199.075,205.105
0.417,37.432,4.668,4.685,200.384,199.298,204.966
0.419,37.716,4.583,4.604,200.345,199.538,204.818
0.420,38.013,4.488,4.513,200.305,199.789,204.665
0.421,38.315,4.392,4.422,200.265,200.046,204.512
0.423,38.615,4.304,4.337,200.228,200.304,204.364
0.424,38.907,4.231,4.268,200.195,200.558,204.224
0.426,39.185,4.181,4.220,200.170,200.804,204.097
0.427,39.441,4.151,4.192,200.153,201.035,203.988
0.428,39.674,4.137,4.180,200.146,201.250,203.897
0.430,39.889,4.136,4.180,200.145,201.452,203.823
0.431,40.088,4.143,4.189,200.148,201.641,203.762
0.433,40.275,4.154,4.203,200.151,201.822,203.712
0.434,40.454,4.166,4.217,200.152,201.995,203.669
0.435,40.628,4.174,4.228,200.148,202.165,203.630
0.437,40.800,4.178,4.237,200.135,202.332,203.593
0.438,40.975,4.181,4.244,200.111,202.500,203.553
0.440,41.155,4.184,4.252,200.073,202.671,203.509
0.441,41.347,4.189,4.261,200.018,202.848,203.457
0.442,41.555,4.198,4.274,199.943,203.032,203.395
0.444,41.777,4.213,4.291,199.852,203.220,203.324
0.445,42.008,4.235,4.315,199.747,203.411,203.246
0.447,42.243,4.264,4.345,199.633,203.599,203.164
0.448,42.477,4.297,4.378,199.514,203.782,203.080
0.449,42.704,4.332,4.411,199.393,203.956,202.995
0.451,42.921,4.367,4.442,199.275,204.117,202.914
0.452,43.119,4.398,4.469,199.163,204.263,202.837
0.454,43.295,4.423,4.489,199.062,204.389,202.768
0.455,43.443,4.439,4.498,198.975,204.492,202.708
0.456,43.556,4.447,4.498,198.906,204.568,202.660
0.458,43.635,4.447,4.489,198.856,204.618,202.625
0.459,43.683,4.443,4.475,198.824,204.646,202.601
0.461,43.707,4.434,4.457,198.807,204.655,202.588
0.462,43.715,4.425,4.439,198.804,204.649,202.583
0.463,43.732,4.417,4.422,198.811,204.634,202.587
0.465,43.761,4.411,4.410,198.826,204.612,202.597
0.466,43.796,4.410,4.404,198.848,204.589,202.612
0.468,43.835,4.413,4.403,198.875,204.568,202.631
0.469,43.874,4.421,4.409,198.903,204.553,202.654
0.471,43.911,4.432,4.421,198.931,204.549,202.677
0.472,43.948,4.448,4.439,198.957,204.560,202.701
0.473,43.989,4.468,4.463,198.980,204.584,202.724
0.475,44.035,4.492,4.492,199.000,204.622,202.743
0.476,44.089,4.520,4.527,199.015,204.672,202.757
0.478,44.151,4.549,4.565,199.026,204.732,202.764
0.479,44.222,4.578,4.603,199.031,204.803,202.762
0.480,44.302,4.605,4.637,199.031,204.883,202.748
0.482,44.394,4.628,4.665,199.024,204.970,202.722
0.483,44.497,4.644,4.684,199.011,205.064,202.681
0.485,44.614,4.651,4.690,198.990,205.164,202.624
0.486,44.747,4.649,4.681,198.961,205.268,202.548
0.487,44.895,4.638,4.660,198.925,205.377,202.453
0.489,45.060,4.620,4.632,198.885,205.491,202.342
0.490,45.239,4.601,4.602,198.845,205.612,202.215
0.492,45.432,4.581,4.574,198.806,205.740,202.076
0.493,45.638,4.564,4.555,198.773,205.877,201.925
0.494,45.856,4.553,4.549,198.749,206.023,201.766
0.496,46.086,4.552,4.561,198.735,206.179,201.598
0.497,46.326,4.560,4.591,198.735,206.347,201.425
0.499,46.579,4.579,4.638,198.753,206.526,201.249
0.500,46.844,4.609,4.697,198.792,206.719,201.070
0.501,47.123,4.651,4.768,198.852,206.925,200.892
0.503,47.412,4.704,4.847,198.931,207.140,200.716
0.504,47.706,4.770,4.931,199.025,207.360,200.545
0.506,47.999,4.847,5.018,199.130,207.580,200.382
0.507,48.286,4.936,5.106,199.241,207.795,200.229
0.508,48.560,5.030,5.190,199.354,208.001,200.089
0.510,48.815,5.125,5.269,199.465,208.193,199.963
0.511,49.044,5.216,5.339,199.569,208.367,199.856
0.513,49.241,5.299,5.397,199.663,208.517,199.768
0.514,49.400,5.368,5.441,199.741,208.640,199.704
0.515,49.515,5.418,5.467,199.801,208.730,199.664
0.517,49.588,5.448,5.474,199.841,208.788,199.648
0.518,49.626,5.460,5.468,199.864,208.818,199.650
0.520,49.646,5.459,5.452,199.873,208.827,199.664
0.521,49.670,5.448,5.432,199.872,208.819,199.687
0.522,49.703,5.431,5.413,199.863,208.800,199.712
0.524,49.740,5.412,5.398,199.850,208.773,199.733
0.525,49.774,5.394,5.395,199.835,208.745,199.747
0.527,49.802,5.382,5.405,199.821,208.720,199.746
0.528,49.829,5.375,5.427,199.812,208.704,199.727
0.529,49.873,5.373,5.457,199.810,208.702,199.683
0.531,49.947,5.377,5.492,199.818,208.716,199.611
0.532,50.049,5.385,5.530,199.834,208.746,199.515
0.534,50.173,5.397,5.566,199.857,208.788,199.400
0.535,50.315,5.414,5.598,199.885,208.840,199.271
0.537,50.469,5.435,5.622,199.917,208.898,199.133
0.538,50.628,5.458,5.639,199.950,208.961,198.990
0.539,50.787,5.483,5.650,199.984,209.024,198.848
0.541,50.939,5.508,5.656,200.017,209.085,198.712
0.542,51.080,5.530,5.658,200.047,209.141,198.587
0.544,51.202,5.549,5.658,200.072,209.189,198.477
0.545,51.301,5.563,5.657,200.091,209.227,198.388
0.546,51.376,5.571,5.657,200.105,209.254,198.320
0.548,51.431,5.572,5.657,200.115,209.274,198.269
0.549,51.471,5.569,5.657,200.124,209.290,198.234
0.551,51.500,5.563,5.656,200.133,209.305,198.211
0.552,51.524,5.555,5.655,200.145,209.321,198.197
0.553,51.552,5.548,5.652,200.162,209.341,198.188
0.555,51.589,5.542,5.647,200.186,209.369,198.183
0.556,51.640,5.539,5.640,200.220,209.407,198.178
0.558,51.709,5.540,5.632,200.264,209.459,198.170
0.559,51.799,5.545,5.622,200.323,209.526,198.157
0.560,51.912,5.552,5.612,200.395,209.611,198.135
0.562,52.046,5.562,5.604,200.479,209.710,198.106
0.563,52.194,5.573,5.597,200.571,209.820,198.070
0.565,52.351,5.585,5.594,200.669,209.937,198.029
0.566,52.513,5.597,5.595,200.768,210.056,197.984
0.567,52.674,5.610,5.601,200.865,210.175,197.935
0.569,52.830,5.623,5.610,200.958,210.289,197.884
0.570,52.975,5.635,5.623,201.042,210.395,197.831
0.572,53.106,5.647,5.637,201.116,210.489,197.777
0.573,53.216,5.660,5.653,201.174,210.566,197.724
