"T","Distance","Radius","FreeRadius","X","Y","Z"
0.000,0.000,1.893,1.893,-25.149,114.232,161.445
0.001,0.162,1.898,1.898,-25.307,114.223,161.476
0.002,0.322,1.904,1.904,-25.464,114.217,161.506
0.004,0.478,1.911,1.911,-25.618,114.216,161.535
0.005,0.630,1.919,1.919,-25.767,114.224,161.563
0.006,0.777,1.929,1.929,-25.910,114.242,161.590
0.007,0.918,1.941,1.941,-26.045,114.274,161.615
0.008,1.054,1.956,1.956,-26.171,114.322,161.637
0.010,1.188,1.975,1.975,-26.285,114.389,161.657
0.011,1.325,1.997,1.997,-26.387,114.478,161.674
0.012,1.468,2.024,2.024,-26.475,114.591,161.688
0.013,1.626,2.057,2.057,-26.547,114.732,161.697
0.015,1.805,2.097,2.097,-26.602,114.902,161.703
0.016,2.010,2.147,2.147,-26.638,115.103,161.704
0.017,2.238,2.206,2.206,-26.658,115.331,161.702
0.018,2.487,2.277,2.277,-26.665,115.579,161.696
0.019,2.750,2.361,2.361,-26.660,115.842,161.688
0.021,3.023,2.458,2.458,-26.646,116.114,161.678
0.022,3.299,2.569,2.569,-26.625,116.390,161.666
0.023,3.574,2.688,2.688,-26.601,116.663,161.654
0.024,3.840,2.811,2.811,-26.574,116.927,161.643
0.025,4.092,2.934,2.934,-26.549,117.178,161.631
0.027,4.324,3.051,3.051,-26.526,117.409,161.622
0.028,4.531,3.158,3.158,-26.510,117.615,161.614
0.029,4.705,3.250,3.250,-26.501,117.789,161.609
0.030,4.844,3.322,3.322,-26.501,117.928,161.607
0.032,4.952,3.372,3.372,-26.508,118.035,161.607
0.033,5.032,3.402,3.402,-26.518,118.115,161.609
0.034,5.090,3.416,3.416,-26.526,118.172,161.610
0.035,5.128,3.420,3.420,-26.530,118.210,161.612
0.036,5.153,3.418,3.418,-26.526,118.235,161.611
0.038,5.175,3.414,3.414,-26.509,118.249,161.608
0.039,5.209,3.414,3.414,-26.478,118.259,161.602
0.040,5.262,3.420,3.420,-26.427,118.267,161.591
0.041,5.338,3.438,3.438,-26.353,118.279,161.575
0.042,5.443,3.469,3.469,-26.252,118.299,161.552
0.044,5.581,3.509,3.509,-26.122,118.332,161.523
0.045,5.754,3.559,3.559,-25.960,118.380,161.485
0.046,5.956,3.614,3.614,-25.772,118.442,161.442
0.047,6.183,3.674,3.674,-25.564,118.516,161.394
0.048,6.425,3.737,3.737,-25.342,118.600,161.343
0.050,6.678,3.800,3.800,-25.112,118.693,161.292
0.051,6.934,3.863,3.863,-24.881,118.791,161.242
0.052,7.188,3.923,3.923,-24.654,118.894,161.195
0.053,7.431,3.980,3.980,-24.439,118.999,161.152
0.055,7.659,4.036,4.036,-24.240,119.104,161.115
0.056,7.864,4.090,4.090,-24.065,119.207,161.087
0.057,8.041,4.141,4.141,-23.920,119.307,161.068
0.058,8.186,4.191,4.191,-23.810,119.401,161.061
0.059,8.298,4.239,4.239,-23.740,119.488,161.067
0.061,8.387,4.286,4.286,-23.705,119.568,161.083
0.062,8.465,4.331,4.331,-23.700,119.641,161.109
0.063,8.542,4.374,4.374,-23.722,119.708,161.142
0.064,8.626,4.415,4.415,-23.766,119.768,161.182
0.065,8.719,4.453,4.453,-23.826,119.822,161.225
0.067,8.818,4.488,4.488,-23.899,119.870,161.271
0.068,8.920,4.520,4.520,-23.980,119.913,161.318
0.069,9.023,4.547,4.547,-24.064,119.951,161.364
0.070,9.122,4.570,4.570,-24.147,119.983,161.406
0.072,9.212,4.588,4.588,-24.224,120.010,161.445
0.073,9.288,4.602,4.602,-24.290,120.033,161.477
0.074,9.349,4.611,4.611,-24.342,120.052,161.502
0.075,9.393,4.616,4.616,-24.379,120.066,161.521
0.076,9.421,4.618,4.618,-24.402,120.075,161.534
0.078,9.434,4.616,4.616,-24.410,120.081,161.542
0.079,9.442,4.612,4.612,-24.402,120.083,161.545
0.080,9.465,4.605,4.605,-24.380,120.081,161.546
0.081,9.504,4.596,4.596,-24.341,120.076,161.544
0.082,9.560,4.585,4.585,-24.287,120.067,161.541
0.084,9.631,4.574,4.574,-24.216,120.055,161.536
0.085,9.720,4.563,4.563,-24.129,120.039,161.532
0.086,9.825,4.552,4.552,-24.026,120.020,161.529
0.087,9.947,4.542,4.542,-23.906,119.998,161.527
0.088,10.086,4.534,4.534,-23.769,119.974,161.528
0.090,10.238,4.529,4.529,-23.619,119.947,161.531
0.091,10.401,4.527,4.527,-23.459,119.919,161.536
0.092,10.573,4.530,4.530,-23.290,119.889,161.544
0.093,10.750,4.536,4.536,-23.116,119.859,161.555
0.095,10.930,4.545,4.545,-22.939,119.829,161.569
0.096,11.110,4.558,4.558,-22.762,119.799,161.585
0.097,11.287,4.573,4.573,-22.588,119.771,161.605
0.098,11.459,4.590,4.590,-22.420,119.744,161.627
0.099,11.623,4.610,4.610,-22.260,119.719,161.653
0.101,11.777,4.632,4.632,-22.110,119.697,161.683
0.102,11.918,4.655,4.655,-21.975,119.678,161.715
0.103,12.044,4.679,4.679,-21.854,119.663,161.751
0.104,12.157,4.702,4.702,-21.749,119.650,161.789
0.105,12.257,4.724,4.724,-21.656,119.641,161.827
0.107,12.345,4.743,4.743,-21.577,119.633,161.864
0.108,12.421,4.758,4.758,-21.510,119.626,161.898
0.109,12.485,4.769,4.769,-21.454,119.621,161.929
0.110,12.538,4.774,4.774,-21.408,119.616,161.956
0.112,12.580,4.772,4.772,-21.372,119.612,161.975
0.113,12.610,4.763,4.763,-21.345,119.606,161.988
0.114,12.630,4.749,4.749,-21.326,119.600,161.991
0.115,12.646,4.732,4.732,-21.313,119.593,161.984
0.116,12.668,4.715,4.715,-21.307,119.583,161.965
0.118,12.700,4.699,4.699,-21.307,119.572,161.935
0.119,12.739,4.686,4.686,-21.309,119.560,161.898
0.120,12.781,4.679,4.679,-21.313,119.549,161.858
0.121,12.821,4.680,4.680,-21.318,119.539,161.819
0.122,12.856,4.690,4.690,-21.320,119.533,161.785
0.124,12.881,4.705,4.705,-21.319,119.530,161.760
0.125,12.894,4.724,4.724,-21.313,119.533,161.749
0.126,12.911,4.741,4.741,-21.300,119.542,161.754
0.127,12.950,4.755,4.755,-21.278,119.559,161.781
0.128,13.016,4.760,4.760,-21.246,119.585,161.833
0.130,13.115,4.754,4.754,-21.202,119.621,161.914
0.131,13.252,4.733,4.733,-21.144,119.668,162.029
0.132,13.427,4.695,4.695,-21.072,119.727,162.178
0.133,13.634,4.639,4.639,-20.988,119.794,162.355
0.135,13.869,4.572,4.572,-20.895,119.868,162.556
0.136,14.124,4.496,4.496,-20.793,119.947,162.777
0.137,14.394,4.418,4.418,-20.686,120.028,163.011
0.138,14.674,4.340,4.340,-20.576,120.110,163.255
0.139,14.957,4.268,4.268,-20.464,120.191,163.503
0.141,15.239,4.206,4.206,-20.353,120.268,163.750
0.142,15.513,4.158,4.158,-20.245,120.339,163.991
0.143,15.773,4.126,4.126,-20.141,120.402,164.221
0.144,16.014,4.108,4.108,-20.045,120.455,164.436
0.145,16.231,4.100,4.100,-19.958,120.495,164.631
0.147,16.422,4.101,4.101,-19.880,120.524,164.803
0.148,16.591,4.106,4.106,-19.810,120.543,164.955
0.149,16.740,4.115,4.115,-19.745,120.554,165.088
0.150,16.872,4.123,4.123,-19.685,120.559,165.206
0.152,16.991,4.128,4.128,-19.626,120.563,165.310
0.153,17.100,4.127,4.127,-19.567,120.565,165.402
0.154,17.203,4.123,4.123,-19.507,120.570,165.484
0.155,17.302,4.115,4.115,-19.443,120.579,165.560
0.156,17.402,4.105,4.105,-19.373,120.595,165.630
0.158,17.508,4.094,4.094,-19.296,120.620,165.697
0.159,17.623,4.083,4.083,-19.209,120.656,165.763
0.160,17.752,4.075,4.075,-19.111,120.707,165.831
0.161,17.896,4.069,4.069,-19.003,120.771,165.900
0.162,18.054,4.067,4.068,-18.884,120.848,165.972
0.164,18.223,4.070,4.070,-18.759,120.934,166.044
0.165,18.399,4.076,4.076,-18.628,121.028,166.117
0.166,18.581,4.084,4.085,-18.495,121.127,166.189
0.167,18.764,4.094,4.095,-18.360,121.229,166.262
0.168,18.947,4.106,4.106,-18.226,121.331,166.333
0.170,19.127,4.117,4.117,-18.095,121.433,166.402
0.171,19.300,4.128,4.128,-17.969,121.530,166.469
0.172,19.463,4.137,4.137,-17.851,121.622,166.533
0.173,19.614,4.145,4.144,-17.741,121.706,166.594
0.175,19.749,4.152,4.151,-17.643,121.780,166.651
0.176,19.870,4.160,4.159,-17.555,121.843,166.703
0.177,19.979,4.169,4.168,-17.475,121.899,166.752
0.178,20.079,4.182,4.181,-17.401,121.951,166.797
0.179,20.175,4.198,4.197,-17.331,122.001,166.839
0.181,20.269,4.219,4.219,-17.261,122.051,166.877
0.182,20.365,4.247,4.247,-17.189,122.105,166.911
0.183,20.467,4.281,4.282,-17.113,122.165,166.943
0.184,20.579,4.323,4.326,-17.030,122.233,166.971
0.185,20.704,4.373,4.377,-16.937,122.313,166.997
0.187,20.846,4.432,4.436,-16.832,122.407,167.020
0.188,21.010,4.500,4.504,-16.713,122.518,167.041
0.189,21.199,4.577,4.581,-16.577,122.648,167.059
0.190,21.412,4.664,4.667,-16.425,122.795,167.076
0.192,21.643,4.761,4.762,-16.260,122.957,167.091
0.193,21.887,4.869,4.866,-16.087,123.128,167.105
0.194,22.139,4.985,4.978,-15.908,123.305,167.118
0.195,22.392,5.105,5.093,-15.728,123.482,167.132
0.196,22.641,5.224,5.209,-15.550,123.656,167.147
0.198,22.881,5.340,5.322,-15.379,123.823,167.163
0.199,23.105,5.446,5.429,-15.216,123.977,167.181
0.200,23.310,5.540,5.526,-15.068,124.115,167.201
0.201,23.488,5.617,5.610,-14.936,124.233,167.224
0.202,23.635,5.673,5.678,-14.824,124.326,167.250
0.204,23.748,5.707,5.728,-14.737,124.390,167.280
0.205,23.828,5.722,5.762,-14.674,124.427,167.314
0.206,23.885,5.721,5.783,-14.633,124.442,167.350
0.207,23.930,5.708,5.791,-14.611,124.441,167.389
0.208,23.972,5.688,5.789,-14.605,124.428,167.429
0.210,24.017,5.663,5.779,-14.613,124.410,167.470
0.211,24.066,5.637,5.763,-14.632,124.392,167.510
0.212,24.116,5.614,5.743,-14.661,124.379,167.549
0.213,24.167,5.597,5.721,-14.695,124.377,167.586
0.215,24.220,5.585,5.698,-14.733,124.392,167.621
0.216,24.282,5.579,5.675,-14.773,124.428,167.653
0.217,24.361,5.576,5.652,-14.810,124.492,167.680
0.218,24.465,5.577,5.632,-14.844,124.588,167.702
0.219,24.597,5.579,5.614,-14.873,124.715,167.720
0.221,24.753,5.584,5.600,-14.897,124.869,167.734
0.222,24.929,5.588,5.592,-14.917,125.043,167.745
0.223,25.121,5.593,5.589,-14.931,125.234,167.753
0.224,25.323,5.596,5.591,-14.942,125.436,167.759
0.225,25.531,5.598,5.598,-14.948,125.644,167.764
0.227,25.740,5.597,5.607,-14.949,125.853,167.769
0.228,25.945,5.593,5.618,-14.946,126.058,167.774
0.229,26.141,5.584,5.630,-14.939,126.253,167.781
0.230,26.322,5.571,5.640,-14.928,126.434,167.789
0.232,26.485,5.553,5.648,-14.913,126.596,167.800
0.233,26.625,5.528,5.652,-14.894,126.734,167.815
0.234,26.742,5.497,5.652,-14.871,126.847,167.833
0.235,26.839,5.462,5.647,-14.845,126.938,167.855
0.236,26.918,5.424,5.638,-14.816,127.007,167.882
0.238,26.985,5.385,5.624,-14.786,127.057,167.913
0.239,27.044,5.346,5.604,-14.753,127.090,167.950
0.240,27.101,5.309,5.580,-14.719,127.107,167.992
0.241,27.160,5.277,5.550,-14.684,127.110,168.040
0.242,27.225,5.250,5.515,-14.648,127.101,168.094
0.244,27.298,5.229,5.474,-14.612,127.083,168.154
0.245,27.378,5.214,5.429,-14.577,127.056,168.221
0.246,27.466,5.202,5.382,-14.542,127.022,168.295
0.247,27.562,5.193,5.332,-14.509,126.984,168.376
0.248,27.664,5.183,5.282,-14.475,126.945,168.464
0.250,27.771,5.171,5.232,-14.439,126.908,168.558
0.251,27.883,5.156,5.185,-14.398,126.877,168.657
0.252,27.998,5.135,5.140,-14.349,126.856,168.760
0.253,28.119,5.107,5.101,-14.292,126.848,168.866
0.255,28.248,5.072,5.065,-14.223,126.857,168.974
0.256,28.388,5.033,5.034,-14.141,126.888,169.083
0.257,28.546,4.989,5.005,-14.042,126.942,169.194
0.258,28.726,4.944,4.980,-13.925,127.025,169.303
0.259,28.936,4.898,4.957,-13.788,127.140,169.412
0.261,29.179,4.853,4.936,-13.628,127.291,169.518
0.262,29.463,4.811,4.916,-13.443,127.480,169.621
0.263,29.783,4.774,4.896,-13.237,127.703,169.720
0.264,30.133,4.742,4.877,-13.015,127.955,169.816
0.265,30.505,4.716,4.858,-12.779,128.228,169.908
0.267,30.891,4.694,4.841,-12.537,128.516,169.996
0.268,31.283,4.678,4.824,-12.292,128.810,170.080
0.269,31.674,4.667,4.809,-12.049,129.106,170.160
0.270,32.055,4.661,4.795,-11.813,129.395,170.235
0.272,32.417,4.659,4.783,-11.589,129.671,170.305
0.273,32.754,4.663,4.773,-11.381,129.928,170.371
0.274,33.056,4.670,4.765,-11.194,130.157,170.431
0.275,33.315,4.682,4.760,-11.034,130.353,170.487
0.276,33.525,4.697,4.758,-10.903,130.510,170.537
0.278,33.688,4.714,4.758,-10.802,130.629,170.582
0.279,33.808,4.733,4.762,-10.726,130.713,170.622
0.280,33.891,4.753,4.769,-10.674,130.768,170.658
0.281,33.945,4.773,4.780,-10.642,130.797,170.689
0.282,33.977,4.794,4.794,-10.627,130.804,170.717
0.284,34.003,4.813,4.813,-10.625,130.793,170.740
0.285,34.036,4.830,4.834,-10.635,130.769,170.761
0.286,34.077,4.847,4.858,-10.653,130.736,170.777
0.287,34.124,4.862,4.883,-10.675,130.697,170.791
0.288,34.172,4.876,4.908,-10.700,130.657,170.803
0.290,34.217,4.889,4.931,-10.723,130.620,170.812
0.291,34.253,4.901,4.951,-10.742,130.590,170.819
0.292,34.281,4.911,4.968,-10.757,130.567,170.824
0.293,34.300,4.920,4.980,-10.768,130.552,170.828
0.295,34.311,4.928,4.986,-10.774,130.545,170.832
0.296,34.315,4.935,4.988,-10.777,130.545,170.837
0.297,34.325,4.940,4.986,-10.775,130.553,170.842
0.298,34.343,4.944,4.980,-10.768,130.569,170.849
0.299,34.370,4.945,4.972,-10.758,130.592,170.857
0.301,34.406,4.945,4.962,-10.745,130.623,170.869
0.302,34.452,4.944,4.951,-10.727,130.662,170.884
0.303,34.506,4.940,4.940,-10.706,130.709,170.902
0.304,34.571,4.933,4.928,-10.681,130.764,170.925
0.305,34.645,4.925,4.918,-10.652,130.826,170.954
0.307,34.729,4.915,4.907,-10.620,130.897,170.986
0.308,34.823,4.904,4.895,-10.584,130.975,171.023
0.309,34.927,4.891,4.884,-10.543,131.062,171.064
0.310,35.041,4.876,4.871,-10.499,131.157,171.108
0.312,35.165,4.861,4.858,-10.449,131.261,171.155
0.313,35.299,4.844,4.844,-10.395,131.373,171.205
0.314,35.443,4.827,4.828,-10.336,131.493,171.256
0.315,35.597,4.810,4.812,-10.272,131.623,171.309
0.316,35.761,4.794,4.797,-10.202,131.761,171.362
0.318,35.935,4.782,4.784,-10.126,131.908,171.416
0.319,36.119,4.773,4.775,-10.044,132.065,171.470
0.320,36.314,4.771,4.772,-9.957,132.230,171.524
0.321,36.516,4.775,4.776,-9.864,132.402,171.577
0.322,36.724,4.788,4.788,-9.769,132.579,171.629
0.324,36.934,4.810,4.810,-9.671,132.757,171.680
0.325,37.144,4.843,4.842,-9.573,132.936,171.731
0.326,37.351,4.883,4.882,-9.475,133.112,171.780
0.327,37.552,4.929,4.928,-9.380,133.283,171.828
0.328,37.745,4.979,4.977,-9.289,133.446,171.875
0.330,37.927,5.029,5.028,-9.202,133.599,171.920
0.331,38.095,5.079,5.078,-9.123,133.740,171.964
0.332,38.246,5.126,5.125,-9.051,133.867,172.006
0.333,38.378,5.167,5.167,-8.988,133.976,172.047
0.335,38.490,5.201,5.202,-8.936,134.067,172.085
0.336,38.581,5.228,5.230,-8.894,134.139,172.122
0.337,38.655,5.250,5.253,-8.860,134.196,172.156
0.338,38.714,5.265,5.270,-8.834,134.238,172.188
0.339,38.760,5.277,5.282,-8.816,134.266,172.218
0.341,38.795,5.284,5.290,-8.803,134.284,172.245
0.342,38.822,5.288,5.294,-8.796,134.292,172.271
0.343,38.845,5.290,5.296,-8.793,134.292,172.293
0.344,38.866,5.289,5.295,-8.792,134.285,172.313
0.345,38.887,5.288,5.293,-8.795,134.274,172.330
0.347,38.907,5.285,5.289,-8.798,134.260,172.345
0.348,38.927,5.282,5.285,-8.802,134.244,172.357
0.349,38.946,5.279,5.280,-8.805,134.228,172.365
0.350,38.962,5.275,5.276,-8.808,134.213,172.372
0.352,38.976,5.272,5.272,-8.810,134.200,172.376
0.353,38.988,5.270,5.270,-8.810,134.189,172.379
0.354,38.995,5.269,5.269,-8.810,134.182,172.381
0.355,38.999,5.269,5.271,-8.808,134.179,172.383
0.356,39.004,5.270,5.274,-8.804,134.181,172.385
0.358,39.014,5.273,5.279,-8.799,134.189,172.388
0.359,39.031,5.276,5.286,-8.791,134.204,172.392
0.360,39.056,5.281,5.294,-8.782,134.227,172.397
0.361,39.090,5.286,5.304,-8.770,134.258,172.405
0.362,39.134,5.292,5.315,-8.756,134.298,172.415
0.364,39.189,5.299,5.327,-8.739,134.348,172.429
0.365,39.253,5.306,5.341,-8.719,134.407,172.445
0.366,39.325,5.313,5.355,-8.697,134.474,172.464
0.367,39.405,5.321,5.371,-8.673,134.547,172.485
0.368,39.492,5.330,5.386,-8.646,134.626,172.507
0.370,39.583,5.338,5.402,-8.618,134.710,172.531
0.371,39.679,5.347,5.418,-8.587,134.797,172.555
0.372,39.777,5.356,5.433,-8.554,134.886,172.580
0.373,39.877,5.365,5.448,-8.519,134.977,172.604
0.375,39.978,5.375,5.462,-8.482,135.068,172.629
0.376,40.079,5.384,5.475,-8.444,135.158,172.653
0.377,40.179,5.393,5.488,-8.404,135.246,172.675
0.378,40.276,5.402,5.500,-8.362,135.331,172.697
0.379,40.370,5.411,5.510,-8.319,135.413,172.716
0.381,40.462,5.420,5.520,-8.276,135.491,172.735
0.382,40.550,5.429,5.529,-8.233,135.566,172.752
0.383,40.633,5.438,5.537,-8.191,135.636,172.768
0.384,40.713,5.447,5.545,-8.149,135.702,172.782
0.385,40.787,5.455,5.551,-8.109,135.764,172.796
0.387,40.856,5.463,5.557,-8.071,135.820,172.808
0.388,40.919,5.471,5.562,-8.035,135.870,172.819
0.389,40.976,5.478,5.566,-8.002,135.916,172.829
0.390,41.025,5.484,5.570,-7.973,135.955,172.838
0.392,41.067,5.490,5.574,-7.948,135.987,172.846
0.393,41.102,5.494,5.577,-7.927,136.014,172.853
0.394,41.130,5.498,5.580,-7.909,136.035,172.859
0.395,41.152,5.500,5.583,-7.895,136.051,172.864
0.396,41.170,5.501,5.585,-7.883,136.064,172.868
0.398,41.185,5.501,5.587,-7.872,136.074,172.871
0.399,41.198,5.500,5.587,-7.862,136.082,172.873
0.400,41.210,5.499,5.587,-7.853,136.089,172.874
0.401,41.222,5.498,5.584,-7.843,136.095,172.875
0.402,41.235,5.497,5.579,-7.832,136.103,172.874
0.404,41.251,5.496,5.572,-7.819,136.112,172.872
0.405,41.271,5.496,5.562,-7.804,136.124,172.870
0.406,41.295,5.496,5.549,-7.785,136.139,172.866
0.407,41.324,5.496,5.536,-7.763,136.159,172.862
0.408,41.360,5.496,5.522,-7.737,136.182,172.859
0.410,41.401,5.495,5.509,-7.708,136.210,172.857
0.411,41.447,5.493,5.497,-7.673,136.242,172.859
0.412,41.501,5.490,5.489,-7.635,136.278,172.865
0.413,41.561,5.486,5.484,-7.591,136.319,172.878
0.415,41.630,5.481,5.483,-7.543,136.364,172.898
0.416,41.708,5.474,5.488,-7.490,136.413,172.926
0.417,41.796,5.465,5.497,-7.432,136.466,172.965
0.418,41.895,5.457,5.509,-7.368,136.524,173.014
0.419,42.007,5.448,5.524,-7.299,136.586,173.076
0.421,42.133,5.441,5.540,-7.224,136.652,173.153
0.422,42.273,5.435,5.557,-7.143,136.723,173.243
0.423,42.425,5.430,5.574,-7.058,136.797,173.345
0.424,42.588,5.429,5.589,-6.968,136.875,173.456
0.425,42.759,5.431,5.603,-6.874,136.955,173.575
0.427,42.935,5.436,5.616,-6.778,137.037,173.697
0.428,43.114,5.444,5.628,-6.680,137.120,173.822
0.429,43.294,5.456,5.641,-6.580,137.204,173.945
0.430,43.472,5.472,5.654,-6.479,137.289,174.066
0.432,43.646,5.491,5.669,-6.379,137.373,174.181
0.433,43.815,5.514,5.686,-6.279,137.456,174.287
0.434,43.975,5.541,5.705,-6.181,137.538,174.384
0.435,44.125,5.571,5.729,-6.084,137.618,174.467
0.436,44.265,5.605,5.755,-5.991,137.696,174.536
0.438,44.396,5.641,5.783,-5.900,137.771,174.593
0.439,44.519,5.679,5.813,-5.812,137.844,174.640
0.440,44.635,5.718,5.843,-5.727,137.913,174.679
0.441,44.746,5.756,5.872,-5.645,137.979,174.713
0.442,44.850,5.793,5.900,-5.567,138.041,174.742
0.444,44.949,5.829,5.925,-5.492,138.100,174.771
0.445,45.044,5.861,5.946,-5.421,138.154,174.800
0.446,45.134,5.890,5.963,-5.353,138.205,174.832
0.447,45.221,5.916,5.977,-5.289,138.251,174.868
0.448,45.306,5.940,5.988,-5.229,138.293,174.912
0.450,45.391,5.960,5.996,-5.174,138.329,174.965
0.451,45.478,5.979,6.004,-5.122,138.361,175.027
0.452,45.569,5.995,6.010,-5.074,138.389,175.099
0.453,45.662,6.009,6.016,-5.030,138.412,175.178
0.455,45.760,6.023,6.023,-4.989,138.431,175.264
0.456,45.860,6.034,6.030,-4.951,138.446,175.356
0.457,45.962,6.045,6.038,-4.915,138.458,175.451
0.458,46.067,6.056,6.048,-4.882,138.466,175.550
0.459,46.172,6.066,6.058,-4.852,138.472,175.651
0.461,46.278,6.076,6.070,-4.823,138.475,175.752
0.462,46.382,6.087,6.082,-4.797,138.476,175.853
0.463,46.485,6.098,6.096,-4.771,138.475,175.953
0.464,46.585,6.110,6.110,-4.747,138.472,176.050
0.465,46.682,6.124,6.125,-4.724,138.468,176.144
0.467,46.775,6.140,6.141,-4.702,138.462,176.234
0.468,46.865,6.156,6.158,-4.681,138.456,176.322
0.469,46.953,6.173,6.175,-4.661,138.450,176.407
0.470,47.038,6.191,6.193,-4.642,138.445,176.489
0.472,47.120,6.210,6.211,-4.624,138.440,176.570
0.473,47.200,6.228,6.229,-4.608,138.436,176.648
0.474,47.278,6.247,6.247,-4.592,138.434,176.724
0.475,47.354,6.266,6.266,-4.577,138.435,176.799
0.476,47.429,6.284,6.283,-4.563,138.437,176.872
0.478,47.502,6.301,6.301,-4.551,138.443,176.944
0.479,47.574,6.319,6.318,-4.539,138.452,177.015
0.480,47.646,6.335,6.335,-4.528,138.465,177.085
0.481,47.718,6.351,6.351,-4.518,138.481,177.154
0.482,47.790,6.367,6.367,-4.508,138.499,177.223
0.484,47.861,6.382,6.382,-4.497,138.519,177.291
0.485,47.933,6.396,6.396,-4.487,138.540,177.358
0.486,48.004,6.410,6.410,-4.475,138.561,177.425
0.487,48.076,6.423,6.423,-4.463,138.583,177.492
0.488,48.147,6.436,6.436,-4.448,138.605,177.559
0.490,48.219,6.449,6.448,-4.432,138.626,177.625
0.491,48.291,6.460,6.460,-4.414,138.645,177.692
0.492,48.363,6.472,6.471,-4.394,138.662,177.759
0.493,48.435,6.484,6.483,-4.370,138.677,177.826
0.495,48.508,6.495,6.495,-4.344,138.689,177.892
0.496,48.580,6.507,6.507,-4.316,138.699,177.958
0.497,48.652,6.518,6.519,-4.286,138.706,178.023
