"T","Distance","Radius","FreeRadius","X","Y","Z"
0.000,0.000,2.457,2.457,147.248,175.364,163.663
0.001,0.332,2.509,2.509,147.202,175.687,163.603
0.003,0.661,2.563,2.563,147.156,176.008,163.543
0.004,0.987,2.619,2.619,147.110,176.325,163.482
0.005,1.307,2.681,2.681,147.065,176.637,163.423
0.006,1.620,2.748,2.748,147.021,176.941,163.364
0.008,1.924,2.823,2.823,146.977,177.235,163.306
0.009,2.216,2.908,2.908,146.933,177.519,163.249
0.010,2.495,3.003,3.003,146.891,177.789,163.193
0.012,2.760,3.110,3.110,146.850,178.044,163.138
0.013,3.007,3.225,3.225,146.810,178.283,163.084
0.014,3.236,3.344,3.344,146.772,178.502,163.032
0.015,3.445,3.465,3.465,146.734,178.701,162.982
0.017,3.632,3.584,3.584,146.699,178.878,162.934
0.018,3.795,3.696,3.696,146.665,179.031,162.888
0.019,3.935,3.800,3.800,146.632,179.161,162.844
0.020,4.056,3.890,3.890,146.600,179.270,162.803
0.022,4.160,3.965,3.965,146.568,179.361,162.765
0.023,4.250,4.027,4.027,146.535,179.436,162.730
0.024,4.328,4.077,4.077,146.501,179.499,162.698
0.026,4.397,4.116,4.116,146.464,179.550,162.670
0.027,4.460,4.145,4.145,146.424,179.593,162.647
0.028,4.520,4.168,4.168,146.381,179.630,162.627
0.029,4.580,4.184,4.184,146.334,179.664,162.613
0.031,4.643,4.197,4.197,146.281,179.696,162.603
0.032,4.710,4.206,4.206,146.223,179.730,162.598
0.033,4.785,4.213,4.213,146.158,179.768,162.599
0.035,4.869,4.219,4.219,146.087,179.812,162.606
0.036,4.963,4.224,4.224,146.008,179.862,162.618
0.037,5.065,4.230,4.230,145.924,179.918,162.635
0.038,5.174,4.237,4.237,145.836,179.977,162.656
0.040,5.287,4.245,4.245,145.745,180.040,162.679
0.041,5.403,4.257,4.257,145.651,180.104,162.704
0.042,5.520,4.271,4.271,145.557,180.168,162.730
0.044,5.636,4.287,4.287,145.463,180.231,162.756
0.045,5.749,4.304,4.304,145.371,180.291,162.781
0.046,5.858,4.320,4.320,145.281,180.348,162.804
0.047,5.960,4.335,4.335,145.195,180.399,162.825
0.049,6.054,4.348,4.348,145.115,180.445,162.842
0.050,6.138,4.357,4.357,145.041,180.482,162.854
0.051,6.211,4.362,4.362,144.974,180.511,162.861
0.052,6.272,4.362,4.362,144.915,180.530,162.863
0.054,6.323,4.359,4.359,144.866,180.541,162.859
0.055,6.365,4.353,4.353,144.825,180.546,162.853
0.056,6.397,4.345,4.345,144.793,180.545,162.844
0.058,6.422,4.337,4.337,144.771,180.540,162.835
0.059,6.439,4.328,4.328,144.759,180.532,162.826
0.060,6.451,4.321,4.321,144.756,180.523,162.819
0.061,6.464,4.315,4.315,144.763,180.514,162.814
0.063,6.483,4.311,4.311,144.781,180.507,162.814
0.064,6.512,4.309,4.309,144.809,180.502,162.819
0.065,6.553,4.309,4.309,144.848,180.501,162.830
0.067,6.606,4.310,4.310,144.898,180.506,162.850
0.068,6.675,4.313,4.313,144.959,180.518,162.878
0.069,6.759,4.318,4.318,145.031,180.538,162.916
0.070,6.853,4.325,4.325,145.110,180.565,162.961
0.072,6.955,4.333,4.333,145.190,180.599,163.013
0.073,7.057,4.341,4.341,145.267,180.640,163.068
0.074,7.158,4.347,4.347,145.336,180.685,163.124
0.076,7.252,4.350,4.350,145.392,180.736,163.180
0.077,7.337,4.348,4.348,145.432,180.790,163.233
0.078,7.414,4.340,4.340,145.448,180.848,163.280
0.079,7.488,4.323,4.323,145.438,180.909,163.321
0.081,7.569,4.296,4.296,145.396,180.972,163.352
0.082,7.673,4.258,4.258,145.318,181.036,163.371
0.083,7.809,4.211,4.211,145.198,181.101,163.377
0.085,7.987,4.159,4.159,145.032,181.166,163.367
0.086,8.214,4.106,4.106,144.817,181.231,163.339
0.087,8.487,4.055,4.055,144.555,181.296,163.294
0.088,8.800,4.010,4.010,144.255,181.361,163.236
0.090,9.145,3.974,3.974,143.924,181.430,163.168
0.091,9.515,3.952,3.952,143.569,181.501,163.090
0.092,9.903,3.945,3.945,143.198,181.577,163.007
0.093,10.302,3.951,3.951,142.817,181.659,162.921
0.095,10.704,3.968,3.968,142.435,181.747,162.834
0.096,11.102,3.991,3.991,142.058,181.843,162.749
0.097,11.490,4.018,4.018,141.693,181.948,162.669
0.099,11.859,4.044,4.044,141.349,182.062,162.596
0.100,12.206,4.066,4.066,141.033,182.188,162.534
0.101,12.523,4.081,4.081,140.751,182.326,162.484
0.102,12.809,4.087,4.087,140.511,182.476,162.449
0.104,13.066,4.086,4.086,140.313,182.639,162.430
0.105,13.301,4.080,4.080,140.154,182.812,162.424
0.106,13.520,4.073,4.073,140.030,182.992,162.429
0.108,13.729,4.066,4.066,139.935,183.178,162.443
0.109,13.931,4.063,4.063,139.867,183.368,162.465
0.110,14.129,4.067,4.067,139.820,183.558,162.493
0.111,14.322,4.080,4.080,139.791,183.746,162.524
0.113,14.510,4.104,4.104,139.775,183.931,162.556
0.114,14.692,4.136,4.136,139.768,184.109,162.588
0.115,14.865,4.175,4.175,139.766,184.280,162.618
0.117,15.027,4.220,4.220,139.765,184.440,162.644
0.118,15.175,4.268,4.268,139.760,184.587,162.663
0.119,15.308,4.317,4.317,139.747,184.718,162.674
0.120,15.426,4.365,4.365,139.725,184.834,162.675
0.122,15.533,4.410,4.410,139.693,184.936,162.669
0.123,15.631,4.452,4.452,139.654,185.025,162.655
0.124,15.725,4.491,4.491,139.608,185.104,162.635
0.125,15.815,4.527,4.527,139.556,185.174,162.610
0.127,15.905,4.560,4.560,139.500,185.237,162.580
0.128,15.994,4.592,4.592,139.441,185.295,162.547
0.129,16.084,4.621,4.621,139.380,185.351,162.511
0.131,16.174,4.650,4.650,139.318,185.404,162.474
0.132,16.264,4.678,4.678,139.257,185.459,162.437
0.133,16.354,4.705,4.705,139.197,185.515,162.400
0.134,16.445,4.733,4.733,139.139,185.576,162.365
0.136,16.537,4.761,4.761,139.086,185.643,162.331
0.137,16.631,4.790,4.790,139.037,185.718,162.301
0.138,16.728,4.821,4.821,138.993,185.799,162.274
0.140,16.828,4.854,4.854,138.952,185.887,162.248
0.141,16.933,4.889,4.889,138.916,185.982,162.223
0.142,17.041,4.928,4.928,138.882,186.082,162.199
0.143,17.154,4.969,4.969,138.851,186.188,162.174
0.145,17.270,5.013,5.013,138.823,186.298,162.147
0.146,17.391,5.059,5.059,138.797,186.412,162.119
0.147,17.516,5.108,5.108,138.773,186.530,162.087
0.149,17.644,5.157,5.157,138.750,186.652,162.052
0.150,17.777,5.209,5.209,138.728,186.776,162.013
0.151,17.912,5.261,5.261,138.706,186.903,161.969
0.152,18.052,5.313,5.313,138.684,187.031,161.918
0.154,18.195,5.367,5.367,138.662,187.160,161.862
0.155,18.340,5.420,5.420,138.640,187.290,161.800
0.156,18.487,5.472,5.472,138.617,187.419,161.733
0.157,18.634,5.524,5.524,138.593,187.546,161.664
0.159,18.778,5.575,5.575,138.569,187.669,161.593
0.160,18.919,5.624,5.624,138.544,187.789,161.522
0.161,19.055,5.671,5.671,138.518,187.903,161.453
0.163,19.185,5.716,5.716,138.491,188.010,161.385
0.164,19.306,5.758,5.758,138.463,188.110,161.322
0.165,19.418,5.797,5.797,138.433,188.200,161.264
0.166,19.518,5.832,5.832,138.402,188.281,161.213
0.168,19.607,5.862,5.862,138.370,188.351,161.169
0.169,19.681,5.888,5.888,138.337,188.408,161.135
0.170,19.742,5.909,5.909,138.301,188.452,161.111
0.172,19.792,5.923,5.923,138.265,188.484,161.098
0.173,19.835,5.932,5.932,138.228,188.504,161.093
0.174,19.874,5.935,5.935,138.191,188.517,161.096
0.175,19.911,5.935,5.935,138.155,188.522,161.104
0.177,19.948,5.934,5.934,138.121,188.523,161.118
0.178,19.984,5.932,5.932,138.089,188.521,161.134
0.179,20.019,5.932,5.932,138.060,188.518,161.152
0.181,20.050,5.936,5.936,138.034,188.516,161.170
0.182,20.077,5.945,5.945,138.012,188.518,161.187
0.183,20.100,5.960,5.960,137.996,188.524,161.201
0.184,20.121,5.981,5.981,137.985,188.538,161.212
0.186,20.144,6.006,6.006,137.980,188.561,161.216
0.187,20.178,6.034,6.034,137.983,188.594,161.214
0.188,20.225,6.064,6.064,137.992,188.640,161.205
0.190,20.286,6.093,6.093,138.008,188.697,161.190
0.191,20.360,6.122,6.122,138.028,188.764,161.169
0.192,20.444,6.148,6.148,138.052,188.842,161.145
0.193,20.539,6.171,6.171,138.078,188.928,161.119
0.195,20.642,6.190,6.190,138.106,189.024,161.091
0.196,20.753,6.205,6.205,138.135,189.127,161.063
0.197,20.870,6.214,6.214,138.163,189.238,161.037
0.198,20.993,6.218,6.218,138.190,189.355,161.012
0.200,21.120,6.216,6.216,138.214,189.479,160.992
0.201,21.252,6.208,6.208,138.234,189.607,160.976
0.202,21.386,6.194,6.194,138.250,189.741,160.966
0.204,21.524,6.172,6.172,138.259,189.878,160.963
0.205,21.665,6.146,6.146,138.263,190.019,160.968
0.206,21.807,6.117,6.117,138.261,190.161,160.981
0.207,21.951,6.087,6.087,138.255,190.303,161.000
0.209,22.095,6.057,6.057,138.248,190.445,161.026
0.210,22.238,6.029,6.029,138.239,190.584,161.058
0.211,22.378,6.005,6.005,138.231,190.718,161.095
0.213,22.514,5.987,5.987,138.226,190.848,161.137
0.214,22.644,5.975,5.975,138.223,190.970,161.182
0.215,22.768,5.967,5.967,138.226,191.083,161.232
0.216,22.885,5.963,5.963,138.235,191.187,161.284
0.218,22.994,5.960,5.960,138.252,191.280,161.338
0.219,23.095,5.956,5.956,138.279,191.359,161.395
0.220,23.189,5.951,5.951,138.316,191.424,161.452
0.222,23.280,5.941,5.941,138.364,191.475,161.510
0.223,23.368,5.927,5.927,138.421,191.512,161.567
0.224,23.454,5.906,5.906,138.482,191.539,161.621
0.225,23.533,5.880,5.880,138.541,191.559,161.670
0.227,23.604,5.849,5.849,138.595,191.576,161.712
0.228,23.662,5.815,5.815,138.640,191.592,161.746
0.229,23.704,5.777,5.777,138.669,191.610,161.769
0.230,23.733,5.738,5.738,138.680,191.634,161.780
0.232,23.768,5.696,5.696,138.668,191.667,161.778
0.233,23.831,5.653,5.653,138.627,191.711,161.759
0.234,23.932,5.610,5.610,138.554,191.771,161.722
0.236,24.078,5.563,5.563,138.444,191.849,161.666
0.237,24.275,5.513,5.513,138.292,191.947,161.589
0.238,24.528,5.458,5.457,138.095,192.070,161.488
0.239,24.834,5.396,5.396,137.855,192.215,161.366
0.241,25.183,5.326,5.326,137.580,192.379,161.227
0.242,25.567,5.248,5.248,137.277,192.557,161.073
0.243,25.977,5.159,5.160,136.953,192.747,160.908
0.245,26.403,5.063,5.063,136.616,192.943,160.737
0.246,26.837,4.962,4.962,136.271,193.141,160.563
0.247,27.269,4.860,4.860,135.928,193.339,160.389
0.248,27.691,4.761,4.762,135.593,193.532,160.220
0.250,28.094,4.669,4.669,135.274,193.715,160.058
0.251,28.468,4.586,4.587,134.977,193.886,159.908
0.252,28.804,4.518,4.518,134.710,194.039,159.772
0.254,29.094,4.467,4.467,134.480,194.172,159.656
0.255,29.328,4.433,4.432,134.294,194.280,159.562
0.256,29.506,4.412,4.410,134.155,194.362,159.491
0.257,29.632,4.403,4.401,134.056,194.423,159.440
0.259,29.715,4.403,4.400,133.994,194.465,159.406
0.260,29.760,4.409,4.407,133.962,194.493,159.388
0.261,29.779,4.419,4.417,133.957,194.509,159.381
0.262,29.797,4.430,4.430,133.973,194.517,159.382
0.264,29.830,4.441,4.442,134.005,194.522,159.390
0.265,29.874,4.450,4.453,134.048,194.525,159.401
0.266,29.925,4.457,4.463,134.097,194.532,159.412
0.268,29.977,4.463,4.470,134.146,194.545,159.420
0.269,30.028,4.468,4.476,134.192,194.568,159.423
0.270,30.080,4.471,4.478,134.229,194.605,159.418
0.271,30.141,4.472,4.477,134.251,194.659,159.401
0.273,30.219,4.472,4.472,134.256,194.731,159.372
0.274,30.319,4.471,4.464,134.245,194.820,159.330
0.275,30.437,4.468,4.453,134.219,194.923,159.277
0.277,30.571,4.465,4.443,134.180,195.036,159.215
0.278,30.720,4.461,4.434,134.130,195.157,159.145
0.279,30.879,4.458,4.429,134.070,195.282,159.068
0.280,31.045,4.455,4.429,134.002,195.409,158.985
0.282,31.215,4.453,4.438,133.927,195.535,158.897
0.283,31.386,4.453,4.455,133.848,195.656,158.806
0.284,31.555,4.454,4.484,133.765,195.770,158.713
0.286,31.718,4.458,4.521,133.681,195.873,158.620
0.287,31.873,4.463,4.563,133.597,195.964,158.526
0.288,32.017,4.470,4.608,133.515,196.038,158.435
0.289,32.148,4.478,4.654,133.436,196.094,158.346
0.291,32.269,4.489,4.697,133.359,196.133,158.260
0.292,32.382,4.501,4.734,133.286,196.157,158.178
0.293,32.488,4.515,4.763,133.215,196.168,158.100
0.294,32.589,4.530,4.783,133.147,196.167,158.025
0.296,32.686,4.547,4.794,133.081,196.158,157.955
0.297,32.780,4.564,4.798,133.017,196.142,157.888
0.298,32.870,4.582,4.796,132.955,196.122,157.827
0.300,32.956,4.600,4.790,132.894,196.098,157.770
0.301,33.039,4.618,4.780,132.834,196.075,157.717
0.302,33.118,4.634,4.769,132.775,196.053,157.670
0.303,33.192,4.650,4.757,132.717,196.034,157.629
0.305,33.261,4.664,4.746,132.659,196.021,157.593
0.306,33.326,4.676,4.736,132.602,196.016,157.562
0.307,33.389,4.687,4.727,132.545,196.020,157.537
0.309,33.451,4.696,4.719,132.487,196.031,157.516
0.310,33.515,4.703,4.714,132.429,196.051,157.497
0.311,33.582,4.709,4.712,132.371,196.079,157.481
0.312,33.653,4.712,4.712,132.312,196.116,157.465
0.314,33.729,4.714,4.716,132.252,196.160,157.449
0.315,33.811,4.714,4.722,132.192,196.213,157.431
0.316,33.900,4.712,4.730,132.130,196.273,157.411
0.318,33.996,4.707,4.737,132.066,196.342,157.388
0.319,34.100,4.699,4.744,132.001,196.418,157.360
0.320,34.213,4.689,4.747,131.935,196.502,157.327
0.321,34.335,4.675,4.746,131.866,196.595,157.286
0.323,34.466,4.658,4.740,131.795,196.695,157.238
0.324,34.607,4.637,4.726,131.722,196.802,157.182
0.325,34.757,4.613,4.706,131.647,196.914,157.119
0.327,34.915,4.588,4.682,131.569,197.032,157.047
0.328,35.079,4.562,4.656,131.489,197.152,156.969
0.329,35.250,4.537,4.630,131.406,197.274,156.884
0.330,35.425,4.513,4.608,131.320,197.396,156.792
0.332,35.604,4.493,4.591,131.231,197.518,156.695
0.333,35.787,4.477,4.582,131.139,197.637,156.592
0.334,35.972,4.467,4.582,131.044,197.752,156.483
0.335,36.158,4.463,4.593,130.945,197.862,156.369
0.337,36.346,4.466,4.613,130.843,197.967,156.251
0.338,36.534,4.476,4.641,130.738,198.063,156.128
0.339,36.723,4.493,4.675,130.628,198.150,156.002
0.341,36.912,4.518,4.716,130.516,198.228,155.872
0.342,37.102,4.551,4.762,130.400,198.300,155.740
0.343,37.292,4.593,4.811,130.281,198.366,155.607
0.344,37.484,4.644,4.863,130.159,198.432,155.474
0.346,37.676,4.702,4.917,130.036,198.497,155.342
0.347,37.868,4.766,4.974,129.910,198.566,155.213
0.348,38.061,4.833,5.032,129.784,198.641,155.089
0.350,38.255,4.902,5.091,129.656,198.724,154.969
0.351,38.450,4.970,5.152,129.528,198.818,154.855
0.352,38.648,5.036,5.214,129.399,198.925,154.749
0.353,38.851,5.098,5.276,129.271,199.048,154.652
0.355,39.061,5.154,5.339,129.143,199.190,154.565
0.356,39.280,5.205,5.403,129.017,199.353,154.489
0.357,39.513,5.255,5.470,128.891,199.537,154.425
0.359,39.757,5.307,5.539,128.768,199.741,154.372
0.360,40.010,5.362,5.613,128.648,199.961,154.330
0.361,40.270,5.424,5.691,128.532,200.191,154.297
0.362,40.533,5.495,5.775,128.421,200.428,154.273
0.364,40.796,5.579,5.866,128.315,200.668,154.255
0.365,41.055,5.676,5.964,128.215,200.907,154.244
0.366,41.306,5.783,6.065,128.123,201.140,154.239
0.367,41.545,5.895,6.165,128.040,201.364,154.237
0.369,41.768,6.007,6.262,127.965,201.574,154.239
0.370,41.971,6.115,6.349,127.900,201.766,154.243
0.371,42.150,6.214,6.424,127.845,201.937,154.249
0.373,42.301,6.298,6.482,127.803,202.082,154.255
0.374,42.420,6.364,6.520,127.772,202.197,154.260
0.375,42.509,6.407,6.534,127.753,202.284,154.264
0.376,42.571,6.432,6.530,127.743,202.345,154.267
0.378,42.610,6.440,6.511,127.740,202.383,154.269
0.379,42.628,6.437,6.483,127.742,202.401,154.270
0.380,42.635,6.425,6.451,127.748,202.403,154.271
0.382,42.649,6.409,6.419,127.755,202.391,154.270
0.383,42.672,6.391,6.393,127.762,202.369,154.268
0.384,42.703,6.376,6.377,127.767,202.338,154.265
0.385,42.739,6.366,6.374,127.768,202.303,154.262
0.387,42.777,6.361,6.382,127.762,202.266,154.257
0.388,42.816,6.360,6.398,127.748,202.229,154.252
0.389,42.856,6.363,6.420,127.725,202.197,154.245
0.391,42.900,6.370,6.446,127.689,202.172,154.238
0.392,42.951,6.380,6.472,127.642,202.155,154.230
0.393,43.011,6.393,6.496,127.584,202.145,154.220
0.394,43.080,6.408,6.516,127.516,202.142,154.210
0.396,43.156,6.425,6.530,127.440,202.144,154.200
0.397,43.241,6.443,6.539,127.357,202.151,154.188
0.398,43.331,6.461,6.544,127.268,202.163,154.176
0.399,43.426,6.478,6.544,127.175,202.178,154.164
0.401,43.525,6.493,6.542,127.079,202.196,154.150
0.402,43.626,6.504,6.537,126.980,202.215,154.137
0.403,43.729,6.512,6.530,126.881,202.236,154.123
0.405,43.830,6.515,6.522,126.783,202.257,154.108
0.406,43.930,6.514,6.513,126.686,202.278,154.093
0.407,44.027,6.509,6.505,126.592,202.298,154.078
0.408,44.120,6.503,6.499,126.503,202.316,154.063
0.410,44.209,6.498,6.494,126.417,202.334,154.047
0.411,44.294,6.494,6.492,126.335,202.351,154.030
0.412,44.376,6.494,6.494,126.257,202.367,154.012
0.414,44.454,6.500,6.500,126.183,202.384,153.992
0.415,44.530,6.513,6.512,126.113,202.401,153.970
0.416,44.603,6.532,6.528,126.046,202.419,153.947
0.417,44.674,6.556,6.550,125.983,202.439,153.920
0.419,44.744,6.583,6.575,125.924,202.461,153.891
0.420,44.812,6.611,6.603,125.868,202.485,153.859
0.421,44.881,6.638,6.635,125.816,202.511,153.823
0.423,44.950,6.663,6.667,125.767,202.541,153.784
0.424,45.021,6.683,6.702,125.722,202.574,153.741
0.425,45.094,6.696,6.736,125.681,202.611,153.693
0.426,45.169,6.703,6.771,125.642,202.652,153.642
0.428,45.246,6.706,6.804,125.607,202.694,153.589
0.429,45.324,6.706,6.836,125.575,202.739,153.535
0.430,45.401,6.703,6.865,125.546,202.785,153.479
0.431,45.478,6.701,6.890,125.519,202.832,153.425
0.433,45.553,6.700,6.910,125.496,202.878,153.371
0.434,45.624,6.701,6.926,125.475,202.924,153.320
0.435,45.692,6.707,6.935,125.457,202.969,153.272
0.437,45.756,6.716,6.939,125.441,203.012,153.229
0.438,45.813,6.728,6.938,125.428,203.052,153.190
0.439,45.863,6.742,6.934,125.416,203.089,153.158
0.440,45.906,6.756,6.928,125.407,203.122,153.132
0.442,45.940,6.770,6.921,125.400,203.150,153.114
0.443,45.967,6.782,6.914,125.394,203.174,153.103
0.444,45.989,6.791,6.908,125.389,203.195,153.098
0.446,46.008,6.797,6.905,125.385,203.213,153.097
0.447,46.024,6.800,6.903,125.380,203.228,153.098
0.448,46.039,6.799,6.901,125.374,203.242,153.101
0.449,46.054,6.796,6.900,125.366,203.254,153.104
0.451,46.069,6.791,6.897,125.357,203.265,153.105
0.452,46.086,6.784,6.892,125.344,203.277,153.104
0.453,46.106,6.777,6.883,125.329,203.289,153.098
0.455,46.133,6.768,6.871,125.309,203.303,153.087
0.456,46.167,6.760,6.853,125.285,203.318,153.069
0.457,46.210,6.751,6.832,125.255,203.335,153.043
0.458,46.264,6.741,6.808,125.220,203.355,153.006
0.460,46.330,6.731,6.783,125.178,203.379,152.961
0.461,46.407,6.718,6.758,125.130,203.406,152.907
0.462,46.493,6.705,6.735,125.076,203.435,152.848
0.464,46.589,6.688,6.714,125.014,203.468,152.783
0.465,46.693,6.670,6.697,124.944,203.505,152.715
0.466,46.804,6.649,6.684,124.867,203.544,152.645
0.467,46.922,6.624,6.674,124.782,203.586,152.574
0.469,47.047,6.595,6.664,124.688,203.632,152.505
0.470,47.179,6.562,6.651,124.586,203.680,152.438
0.471,47.317,6.523,6.634,124.475,203.732,152.375
0.472,47.461,6.479,6.609,124.354,203.786,152.318
0.474,47.612,6.429,6.574,124.224,203.844,152.268
0.475,47.770,6.371,6.527,124.083,203.905,152.227
0.476,47.936,6.307,6.467,123.934,203.969,152.194
0.478,48.108,6.237,6.397,123.777,204.034,152.170
0.479,48.284,6.164,6.318,123.615,204.101,152.153
0.480,48.463,6.089,6.233,123.450,204.169,152.143
0.481,48.642,6.014,6.146,123.284,204.236,152.138
0.483,48.820,5.941,6.059,123.118,204.302,152.137
0.484,48.995,5.872,5.974,122.956,204.367,152.139
0.485,49.164,5.808,5.894,122.799,204.429,152.144
0.487,49.325,5.749,5.820,122.649,204.488,152.150
0.488,49.477,5.697,5.754,122.508,204.543,152.157
0.489,49.616,5.651,5.694,122.378,204.594,152.162
0.490,49.740,5.610,5.640,122.262,204.639,152.167
0.492,49.848,5.573,5.593,122.162,204.678,152.169
0.493,49.939,5.541,5.552,122.077,204.710,152.167
0.494,50.015,5.513,5.516,122.006,204.737,152.165
0.496,50.083,5.489,5.487,121.943,204.761,152.163
0.497,50.145,5.467,5.462,121.885,204.782,152.163
0.498,50.206,5.446,5.439,121.827,204.803,152.168
0.499,50.271,5.422,5.415,121.767,204.824,152.179
0.501,50.345,5.394,5.388,121.699,204.848,152.197
0.502,50.434,5.359,5.354,121.619,204.876,152.226
0.503,50.542,5.314,5.312,121.525,204.908,152.266
0.504,50.674,5.259,5.258,121.411,204.948,152.319
0.506,50.835,5.190,5.190,121.273,204.996,152.388
0.507,51.030,5.109,5.110,121.109,205.054,152.475
0.508,51.263,5.022,5.024,120.912,205.123,152.580
0.510,51.538,4.936,4.937,120.682,205.204,152.706
0.511,51.851,4.854,4.856,120.420,205.297,152.850
0.512,52.196,4.784,4.785,120.131,205.399,153.009
0.513,52.567,4.731,4.732,119.820,205.508,153.180
0.515,52.957,4.700,4.701,119.492,205.622,153.359
0.516,53.361,4.698,4.697,119.153,205.739,153.543
0.517,53.772,4.722,4.721,118.806,205.858,153.728
0.519,54.184,4.768,4.768,118.457,205.976,153.912
0.520,54.591,4.831,4.831,118.110,206.091,154.092
0.521,54.987,4.906,4.906,117.771,206.201,154.263
