"T","Distance","Radius","FreeRadius","X","Y","Z"
0.000,0.000,2.423,2.423,-58.409,-9.368,63.894
0.001,0.318,2.505,2.505,-58.384,-9.113,63.706
0.003,0.634,2.586,2.586,-58.359,-8.859,63.519
0.004,0.944,2.668,2.668,-58.335,-8.610,63.336
0.005,1.247,2.749,2.749,-58.313,-8.365,63.159
0.006,1.540,2.831,2.831,-58.292,-8.128,62.989
0.008,1.819,2.913,2.913,-58.274,-7.900,62.828
0.009,2.084,2.995,2.995,-58.258,-7.682,62.678
0.010,2.330,3.077,3.077,-58.246,-7.478,62.542
0.011,2.556,3.159,3.159,-58.238,-7.287,62.420
0.013,2.760,3.240,3.240,-58.234,-7.113,62.315
0.014,2.939,3.319,3.319,-58.234,-6.956,62.228
0.015,3.092,3.394,3.394,-58.240,-6.819,62.161
0.016,3.222,3.464,3.464,-58.250,-6.700,62.111
0.018,3.330,3.527,3.527,-58.264,-6.598,62.076
0.019,3.420,3.583,3.583,-58.283,-6.513,62.054
0.020,3.494,3.630,3.630,-58.305,-6.443,62.041
0.022,3.555,3.667,3.667,-58.331,-6.388,62.037
0.023,3.605,3.696,3.696,-58.359,-6.348,62.039
0.024,3.647,3.718,3.718,-58.390,-6.320,62.044
0.025,3.684,3.734,3.734,-58.424,-6.304,62.050
0.027,3.721,3.747,3.747,-58.459,-6.299,62.055
0.028,3.758,3.758,3.758,-58.497,-6.305,62.057
0.029,3.798,3.768,3.768,-58.534,-6.318,62.054
0.030,3.839,3.779,3.779,-58.570,-6.336,62.047
0.032,3.876,3.792,3.792,-58.602,-6.353,62.039
0.033,3.907,3.806,3.806,-58.628,-6.366,62.029
0.034,3.927,3.823,3.823,-58.646,-6.371,62.020
0.035,3.940,3.840,3.840,-58.653,-6.363,62.012
0.037,3.966,3.858,3.858,-58.647,-6.339,62.007
0.038,4.016,3.876,3.876,-58.625,-6.293,62.005
0.039,4.097,3.894,3.894,-58.587,-6.223,62.008
0.041,4.212,3.911,3.911,-58.528,-6.124,62.017
0.042,4.368,3.927,3.927,-58.448,-5.991,62.033
0.043,4.561,3.942,3.942,-58.347,-5.828,62.057
0.044,4.786,3.958,3.958,-58.230,-5.639,62.085
0.046,5.033,3.974,3.974,-58.099,-5.432,62.119
0.047,5.296,3.992,3.992,-57.959,-5.212,62.155
0.048,5.567,4.012,4.012,-57.813,-4.987,62.193
0.049,5.838,4.035,4.035,-57.665,-4.763,62.231
0.051,6.103,4.061,4.061,-57.520,-4.545,62.269
0.052,6.353,4.090,4.090,-57.380,-4.340,62.304
0.053,6.581,4.122,4.122,-57.249,-4.156,62.336
0.054,6.781,4.156,4.156,-57.132,-3.997,62.363
0.056,6.944,4.190,4.190,-57.032,-3.870,62.384
0.057,7.072,4.222,4.222,-56.950,-3.773,62.400
0.058,7.170,4.253,4.253,-56.884,-3.701,62.412
0.060,7.241,4.280,4.280,-56.835,-3.651,62.422
0.061,7.290,4.303,4.303,-56.802,-3.616,62.431
0.062,7.321,4.321,4.321,-56.784,-3.593,62.440
0.063,7.341,4.335,4.335,-56.781,-3.576,62.451
0.065,7.366,4.348,4.348,-56.793,-3.560,62.466
0.066,7.403,4.362,4.362,-56.818,-3.542,62.486
0.067,7.456,4.377,4.377,-56.857,-3.516,62.512
0.068,7.529,4.396,4.396,-56.908,-3.477,62.546
0.070,7.623,4.421,4.421,-56.971,-3.422,62.589
0.071,7.736,4.453,4.453,-57.042,-3.351,62.641
0.072,7.863,4.494,4.494,-57.115,-3.267,62.702
0.074,8.001,4.540,4.540,-57.186,-3.173,62.774
0.075,8.147,4.589,4.589,-57.250,-3.069,62.855
0.076,8.299,4.639,4.639,-57.302,-2.959,62.945
0.077,8.455,4.686,4.686,-57.337,-2.845,63.046
0.079,8.616,4.729,4.729,-57.350,-2.728,63.156
0.080,8.784,4.765,4.765,-57.337,-2.612,63.276
0.081,8.963,4.791,4.791,-57.292,-2.498,63.407
0.082,9.158,4.806,4.806,-57.211,-2.389,63.548
0.084,9.376,4.812,4.812,-57.092,-2.286,63.698
0.085,9.613,4.812,4.812,-56.941,-2.190,63.854
0.086,9.867,4.808,4.808,-56.766,-2.102,64.014
0.087,10.129,4.801,4.801,-56.574,-2.021,64.174
0.089,10.394,4.796,4.796,-56.373,-1.949,64.331
0.090,10.654,4.793,4.793,-56.171,-1.886,64.481
0.091,10.901,4.795,4.795,-55.974,-1.832,64.622
0.093,11.129,4.804,4.804,-55.791,-1.788,64.750
0.094,11.328,4.818,4.818,-55.630,-1.754,64.861
0.095,11.492,4.836,4.836,-55.497,-1.730,64.954
0.096,11.612,4.856,4.856,-55.399,-1.718,65.024
0.098,11.687,4.877,4.877,-55.341,-1.717,65.070
0.099,11.726,4.898,4.898,-55.314,-1.723,65.097
0.100,11.741,4.918,4.918,-55.312,-1.734,65.107
0.101,11.763,4.934,4.934,-55.328,-1.748,65.105
0.103,11.796,4.947,4.947,-55.356,-1.762,65.092
0.104,11.835,4.955,4.955,-55.389,-1.773,65.074
0.105,11.872,4.961,4.961,-55.419,-1.779,65.054
0.106,11.900,4.963,4.963,-55.439,-1.776,65.035
0.108,11.921,4.962,4.962,-55.444,-1.763,65.020
0.109,11.954,4.958,4.958,-55.426,-1.736,65.013
0.110,12.018,4.951,4.951,-55.378,-1.694,65.018
0.112,12.116,4.943,4.943,-55.301,-1.636,65.035
0.113,12.242,4.932,4.932,-55.199,-1.567,65.062
0.114,12.389,4.919,4.919,-55.079,-1.490,65.098
0.115,12.550,4.906,4.906,-54.947,-1.409,65.141
0.117,12.718,4.893,4.893,-54.807,-1.328,65.188
0.118,12.886,4.880,4.880,-54.667,-1.250,65.238
0.119,13.047,4.868,4.868,-54.531,-1.180,65.288
0.120,13.194,4.857,4.857,-54.406,-1.121,65.338
0.122,13.321,4.849,4.849,-54.296,-1.077,65.385
0.123,13.421,4.843,4.843,-54.209,-1.051,65.428
0.124,13.491,4.837,4.837,-54.149,-1.047,65.464
0.125,13.539,4.831,4.831,-54.114,-1.061,65.492
0.127,13.575,4.823,4.823,-54.098,-1.086,65.514
0.128,13.606,4.812,4.812,-54.095,-1.113,65.529
0.129,13.630,4.796,4.796,-54.100,-1.135,65.536
0.131,13.641,4.774,4.774,-54.107,-1.145,65.537
0.132,13.654,4.745,4.745,-54.109,-1.134,65.530
0.133,13.695,4.710,4.710,-54.100,-1.096,65.517
0.134,13.776,4.672,4.672,-54.076,-1.022,65.496
0.136,13.904,4.635,4.635,-54.030,-0.905,65.469
0.137,14.091,4.604,4.603,-53.955,-0.738,65.435
0.138,14.342,4.581,4.581,-53.849,-0.514,65.394
0.139,14.652,4.572,4.572,-53.713,-0.240,65.347
0.141,15.009,4.579,4.579,-53.554,0.077,65.294
0.142,15.405,4.607,4.607,-53.377,0.426,65.238
0.143,15.828,4.657,4.657,-53.187,0.799,65.177
0.144,16.268,4.725,4.726,-52.991,1.188,65.113
0.146,16.715,4.809,4.810,-52.793,1.583,65.047
0.147,17.158,4.905,4.906,-52.600,1.976,64.980
0.148,17.586,5.010,5.012,-52.417,2.357,64.912
0.150,17.990,5.121,5.123,-52.249,2.717,64.844
0.151,18.358,5.236,5.237,-52.102,3.049,64.777
0.152,18.685,5.351,5.350,-51.980,3.345,64.712
0.153,18.972,5.463,5.461,-51.882,3.607,64.649
0.155,19.221,5.571,5.567,-51.804,3.836,64.589
0.156,19.436,5.672,5.667,-51.745,4.034,64.531
0.157,19.620,5.766,5.760,-51.702,4.205,64.477
0.158,19.776,5.850,5.844,-51.672,4.349,64.427
0.160,19.906,5.923,5.918,-51.654,4.470,64.381
0.161,20.014,5.982,5.980,-51.644,4.570,64.340
0.162,20.102,6.026,6.028,-51.641,4.650,64.304
0.163,20.172,6.055,6.064,-51.642,4.712,64.274
0.165,20.225,6.072,6.088,-51.645,4.760,64.249
0.166,20.264,6.079,6.102,-51.647,4.795,64.231
0.167,20.291,6.078,6.109,-51.649,4.818,64.219
0.169,20.306,6.072,6.109,-51.650,4.831,64.212
0.170,20.311,6.063,6.105,-51.651,4.835,64.209
0.171,20.314,6.054,6.099,-51.651,4.832,64.211
0.172,20.324,6.047,6.092,-51.651,4.824,64.217
0.174,20.340,6.042,6.084,-51.649,4.812,64.227
0.175,20.359,6.040,6.077,-51.646,4.797,64.239
0.176,20.381,6.040,6.071,-51.642,4.781,64.254
0.177,20.405,6.042,6.065,-51.636,4.766,64.271
0.179,20.429,6.043,6.059,-51.629,4.752,64.289
0.180,20.453,6.046,6.054,-51.621,4.742,64.309
0.181,20.475,6.048,6.050,-51.612,4.735,64.329
0.183,20.497,6.049,6.047,-51.602,4.734,64.348
0.184,20.518,6.049,6.044,-51.593,4.738,64.367
0.185,20.540,6.050,6.043,-51.585,4.748,64.384
0.186,20.564,6.050,6.044,-51.579,4.767,64.399
0.188,20.594,6.051,6.046,-51.575,4.793,64.411
0.189,20.631,6.054,6.050,-51.574,4.829,64.419
0.190,20.677,6.058,6.056,-51.576,4.876,64.424
0.191,20.735,6.064,6.064,-51.582,4.933,64.424
0.193,20.805,6.073,6.075,-51.593,5.001,64.418
0.194,20.886,6.085,6.088,-51.608,5.081,64.407
0.195,20.977,6.099,6.102,-51.626,5.168,64.393
0.196,21.074,6.114,6.118,-51.647,5.262,64.375
0.198,21.175,6.131,6.135,-51.670,5.358,64.354
0.199,21.278,6.147,6.152,-51.695,5.456,64.333
0.200,21.380,6.163,6.169,-51.720,5.552,64.310
0.202,21.477,6.178,6.185,-51.744,5.644,64.288
0.203,21.569,6.191,6.200,-51.768,5.730,64.267
0.204,21.651,6.202,6.213,-51.790,5.807,64.249
0.205,21.722,6.212,6.225,-51.809,5.873,64.233
0.207,21.779,6.221,6.235,-51.825,5.926,64.221
0.208,21.822,6.227,6.243,-51.838,5.967,64.213
0.209,21.855,6.233,6.250,-51.848,5.997,64.208
0.210,21.878,6.237,6.256,-51.856,6.018,64.205
0.212,21.893,6.241,6.259,-51.862,6.032,64.205
0.213,21.902,6.244,6.261,-51.866,6.041,64.207
0.214,21.908,6.245,6.261,-51.868,6.046,64.210
0.215,21.913,6.246,6.260,-51.869,6.048,64.214
0.217,21.919,6.246,6.259,-51.870,6.050,64.219
0.218,21.925,6.245,6.258,-51.869,6.053,64.224
0.219,21.932,6.244,6.257,-51.869,6.059,64.229
0.221,21.943,6.241,6.258,-51.868,6.070,64.233
0.222,21.959,6.237,6.259,-51.867,6.085,64.237
0.223,21.980,6.232,6.262,-51.864,6.105,64.241
0.224,22.008,6.226,6.267,-51.860,6.132,64.247
0.226,22.041,6.219,6.271,-51.854,6.164,64.253
0.227,22.083,6.209,6.274,-51.845,6.204,64.262
0.228,22.132,6.196,6.274,-51.833,6.250,64.272
0.229,22.190,6.181,6.269,-51.816,6.304,64.286
0.231,22.258,6.162,6.259,-51.796,6.366,64.303
0.232,22.335,6.139,6.243,-51.770,6.437,64.324
0.233,22.424,6.111,6.218,-51.739,6.516,64.349
0.234,22.524,6.080,6.186,-51.702,6.604,64.378
0.236,22.632,6.047,6.149,-51.660,6.699,64.411
0.237,22.746,6.013,6.109,-51.615,6.797,64.446
0.238,22.863,5.978,6.068,-51.568,6.898,64.483
0.240,22.980,5.945,6.029,-51.519,6.998,64.520
0.241,23.095,5.915,5.993,-51.470,7.095,64.556
0.242,23.205,5.888,5.962,-51.423,7.188,64.590
0.243,23.307,5.866,5.939,-51.377,7.273,64.622
0.245,23.399,5.848,5.923,-51.334,7.349,64.650
0.246,23.478,5.832,5.910,-51.295,7.414,64.674
0.247,23.541,5.817,5.900,-51.261,7.464,64.692
0.248,23.590,5.799,5.889,-51.233,7.503,64.703
0.250,23.632,5.777,5.875,-51.207,7.535,64.710
0.251,23.671,5.750,5.856,-51.183,7.565,64.711
0.252,23.715,5.715,5.830,-51.157,7.601,64.709
0.253,23.770,5.671,5.794,-51.129,7.647,64.703
0.255,23.841,5.618,5.750,-51.096,7.710,64.694
0.256,23.936,5.558,5.698,-51.056,7.795,64.682
0.257,24.060,5.493,5.641,-51.007,7.908,64.670
0.259,24.219,5.425,5.580,-50.947,8.055,64.656
0.260,24.420,5.356,5.518,-50.874,8.242,64.642
0.261,24.667,5.288,5.455,-50.787,8.473,64.628
0.262,24.958,5.223,5.394,-50.687,8.746,64.614
0.264,25.283,5.162,5.337,-50.576,9.051,64.601
0.265,25.632,5.106,5.284,-50.458,9.379,64.589
0.266,25.996,5.056,5.234,-50.336,9.721,64.578
0.267,26.364,5.012,5.189,-50.214,10.068,64.567
0.269,26.727,4.975,5.147,-50.094,10.411,64.558
0.270,27.075,4.945,5.108,-49.980,10.740,64.549
0.271,27.398,4.922,5.074,-49.874,11.045,64.542
0.272,27.688,4.908,5.042,-49.781,11.319,64.535
0.274,27.933,4.901,5.014,-49.703,11.552,64.530
0.275,28.126,4.901,4.990,-49.643,11.735,64.526
0.276,28.269,4.907,4.970,-49.599,11.872,64.523
0.278,28.369,4.916,4.954,-49.569,11.966,64.523
0.279,28.431,4.926,4.943,-49.551,12.025,64.524
0.280,28.462,4.935,4.938,-49.541,12.055,64.527
0.281,28.470,4.943,4.938,-49.536,12.059,64.532
0.283,28.486,4.946,4.945,-49.535,12.046,64.540
0.284,28.514,4.944,4.958,-49.534,12.019,64.551
0.285,28.551,4.937,4.976,-49.531,11.985,64.564
0.286,28.590,4.928,4.998,-49.522,11.950,64.580
0.288,28.630,4.917,5.022,-49.505,11.920,64.600
0.289,28.671,4.908,5.046,-49.479,11.898,64.623
0.290,28.716,4.902,5.070,-49.444,11.888,64.649
0.292,28.768,4.900,5.090,-49.402,11.890,64.679
0.293,28.828,4.906,5.107,-49.353,11.904,64.711
0.294,28.896,4.920,5.118,-49.301,11.932,64.745
0.295,28.975,4.941,5.123,-49.246,11.975,64.782
0.297,29.065,4.967,5.125,-49.191,12.034,64.821
0.298,29.166,4.996,5.124,-49.136,12.109,64.862
0.299,29.281,5.027,5.121,-49.083,12.202,64.904
0.300,29.410,5.058,5.117,-49.035,12.313,64.948
0.302,29.555,5.086,5.113,-48.991,12.444,64.993
0.303,29.716,5.109,5.111,-48.955,12.593,65.039
0.304,29.889,5.127,5.112,-48.924,12.757,65.085
0.305,30.070,5.139,5.114,-48.899,12.931,65.131
0.307,30.255,5.146,5.118,-48.879,13.109,65.175
0.308,30.440,5.149,5.123,-48.864,13.288,65.218
0.309,30.619,5.150,5.128,-48.854,13.463,65.258
0.311,30.789,5.148,5.133,-48.847,13.628,65.294
0.312,30.944,5.145,5.138,-48.843,13.780,65.327
0.313,31.081,5.142,5.141,-48.842,13.914,65.355
0.314,31.193,5.139,5.143,-48.843,14.024,65.378
0.316,31.277,5.137,5.144,-48.846,14.106,65.395
0.317,31.332,5.136,5.143,-48.850,14.160,65.405
0.318,31.363,5.135,5.142,-48.855,14.190,65.411
0.319,31.374,5.134,5.140,-48.860,14.200,65.413
0.321,31.382,5.134,5.137,-48.865,14.194,65.411
0.322,31.399,5.133,5.135,-48.868,14.177,65.407
0.323,31.423,5.133,5.133,-48.870,14.154,65.402
0.324,31.448,5.132,5.131,-48.869,14.129,65.397
0.326,31.472,5.132,5.130,-48.866,14.106,65.392
0.327,31.490,5.132,5.130,-48.859,14.090,65.389
0.328,31.501,5.131,5.129,-48.848,14.086,65.389
0.330,31.521,5.131,5.130,-48.832,14.097,65.392
0.331,31.555,5.131,5.130,-48.812,14.124,65.399
0.332,31.604,5.131,5.131,-48.789,14.166,65.409
0.333,31.665,5.132,5.132,-48.764,14.220,65.421
0.335,31.737,5.133,5.133,-48.737,14.285,65.435
0.336,31.817,5.134,5.135,-48.710,14.359,65.451
0.337,31.904,5.136,5.137,-48.684,14.440,65.468
0.338,31.994,5.138,5.138,-48.659,14.525,65.485
0.340,32.087,5.140,5.140,-48.637,14.613,65.502
0.341,32.179,5.142,5.142,-48.618,14.703,65.518
0.342,32.270,5.144,5.145,-48.605,14.791,65.533
0.343,32.357,5.147,5.147,-48.596,14.877,65.546
0.345,32.440,5.149,5.149,-48.593,14.959,65.557
0.346,32.518,5.152,5.151,-48.595,15.037,65.566
0.347,32.591,5.154,5.153,-48.600,15.109,65.574
0.349,32.658,5.156,5.155,-48.608,15.175,65.581
0.350,32.719,5.158,5.157,-48.618,15.235,65.586
0.351,32.773,5.159,5.159,-48.630,15.287,65.590
0.352,32.819,5.160,5.160,-48.642,15.332,65.592
0.354,32.857,5.161,5.161,-48.655,15.367,65.594
0.355,32.885,5.161,5.161,-48.666,15.393,65.595
0.356,32.904,5.160,5.161,-48.676,15.409,65.595
0.357,32.914,5.160,5.161,-48.684,15.415,65.595
0.359,32.920,5.159,5.161,-48.689,15.413,65.595
0.360,32.927,5.160,5.161,-48.693,15.407,65.594
0.361,32.934,5.160,5.162,-48.695,15.401,65.594
0.362,32.938,5.162,5.163,-48.696,15.397,65.595
0.364,32.941,5.164,5.164,-48.695,15.399,65.598
0.365,32.954,5.168,5.166,-48.693,15.411,65.602
0.366,32.979,5.173,5.169,-48.691,15.436,65.608
0.368,33.022,5.179,5.174,-48.687,15.477,65.616
0.369,33.084,5.185,5.179,-48.684,15.538,65.627
0.370,33.169,5.193,5.186,-48.680,15.622,65.641
0.371,33.280,5.201,5.195,-48.676,15.731,65.658
0.373,33.411,5.210,5.206,-48.671,15.861,65.678
0.374,33.559,5.219,5.219,-48.667,16.008,65.700
0.375,33.720,5.228,5.234,-48.662,16.167,65.723
0.376,33.889,5.237,5.251,-48.657,16.334,65.747
0.378,34.062,5.247,5.269,-48.651,16.505,65.771
0.379,34.234,5.256,5.288,-48.644,16.675,65.794
0.380,34.402,5.265,5.307,-48.636,16.841,65.817
0.381,34.560,5.274,5.324,-48.628,16.998,65.837
0.383,34.704,5.282,5.341,-48.618,17.141,65.855
0.384,34.831,5.290,5.356,-48.607,17.266,65.870
0.385,34.938,5.298,5.368,-48.595,17.372,65.882
0.387,35.027,5.305,5.379,-48.583,17.459,65.891
0.388,35.097,5.311,5.388,-48.571,17.529,65.896
0.389,35.152,5.317,5.395,-48.560,17.582,65.900
0.390,35.190,5.323,5.400,-48.551,17.619,65.901
0.392,35.215,5.329,5.405,-48.545,17.643,65.900
0.393,35.226,5.334,5.408,-48.541,17.654,65.897
0.394,35.231,5.339,5.411,-48.541,17.653,65.893
0.395,35.244,5.344,5.413,-48.546,17.641,65.888
0.397,35.268,5.348,5.413,-48.556,17.620,65.882
0.398,35.302,5.350,5.411,-48.572,17.591,65.876
0.399,35.342,5.349,5.405,-48.592,17.557,65.869
0.401,35.381,5.344,5.396,-48.613,17.525,65.862
0.402,35.413,5.335,5.381,-48.631,17.500,65.854
0.403,35.432,5.320,5.361,-48.645,17.489,65.845
0.404,35.445,5.298,5.334,-48.649,17.496,65.835
0.406,35.481,5.271,5.301,-48.641,17.529,65.825
0.407,35.549,5.242,5.266,-48.618,17.593,65.814
0.408,35.659,5.214,5.233,-48.576,17.694,65.801
0.409,35.817,5.192,5.206,-48.512,17.837,65.788
0.411,36.029,5.180,5.189,-48.422,18.029,65.773
0.412,36.302,5.181,5.187,-48.305,18.275,65.757
0.413,36.630,5.201,5.203,-48.161,18.569,65.741
0.414,37.001,5.243,5.242,-47.996,18.901,65.726
0.416,37.405,5.307,5.305,-47.813,19.261,65.714
0.417,37.830,5.389,5.386,-47.618,19.639,65.706
0.418,38.266,5.482,5.479,-47.414,20.024,65.703
0.420,38.702,5.581,5.578,-47.206,20.407,65.709
0.421,39.126,5.679,5.677,-46.999,20.776,65.722
0.422,39.528,5.770,5.769,-46.796,21.123,65.747
0.423,39.898,5.848,5.848,-46.603,21.436,65.782
0.425,40.226,5.908,5.908,-46.424,21.706,65.832
0.426,40.505,5.945,5.946,-46.262,21.925,65.895
0.427,40.739,5.965,5.966,-46.118,22.094,65.970
0.428,40.936,5.972,5.973,-45.991,22.219,66.053
0.430,41.102,5.970,5.971,-45.880,22.305,66.142
0.431,41.243,5.964,5.965,-45.785,22.357,66.232
0.432,41.365,5.957,5.958,-45.705,22.381,66.321
0.433,41.471,5.956,5.956,-45.639,22.382,66.404
0.435,41.565,5.963,5.963,-45.586,22.364,66.480
0.436,41.647,5.981,5.980,-45.546,22.334,66.544
0.437,41.715,6.006,6.006,-45.518,22.296,66.593
0.439,41.768,6.038,6.037,-45.502,22.255,66.624
0.440,41.809,6.071,6.070,-45.495,22.217,66.636
0.441,41.844,6.103,6.103,-45.495,22.182,66.633
0.442,41.876,6.132,6.131,-45.500,22.153,66.621
0.444,41.903,6.154,6.153,-45.505,22.132,66.604
0.445,41.923,6.165,6.166,-45.509,22.120,66.589
0.446,41.932,6.167,6.168,-45.507,22.119,66.580
0.447,41.947,6.162,6.163,-45.498,22.131,66.584
0.449,41.987,6.153,6.155,-45.477,22.157,66.605
0.450,42.057,6.144,6.146,-45.442,22.199,66.649
0.451,42.165,6.140,6.142,-45.390,22.259,66.722
0.452,42.316,6.143,6.145,-45.318,22.339,66.828
0.454,42.512,6.157,6.158,-45.225,22.438,66.969
0.455,42.744,6.186,6.185,-45.115,22.553,67.138
0.456,43.005,6.230,6.228,-44.992,22.679,67.330
0.458,43.284,6.287,6.282,-44.860,22.813,67.537
0.459,43.575,6.352,6.346,-44.724,22.950,67.753
0.460,43.867,6.423,6.415,-44.586,23.087,67.972
0.461,44.152,6.494,6.487,-44.452,23.219,68.187
0.463,44.422,6.564,6.558,-44.326,23.343,68.390
0.464,44.668,6.627,6.624,-44.210,23.455,68.577
0.465,44.882,6.682,6.684,-44.110,23.550,68.740
0.466,45.054,6.725,6.735,-44.030,23.626,68.872
0.468,45.184,6.759,6.778,-43.970,23.680,68.973
0.469,45.276,6.783,6.814,-43.927,23.716,69.047
0.470,45.336,6.801,6.843,-43.900,23.736,69.096
0.471,45.371,6.812,6.867,-43.885,23.744,69.126
0.473,45.386,6.818,6.886,-43.880,23.741,69.141
0.474,45.398,6.820,6.901,-43.884,23.730,69.143
0.475,45.417,6.820,6.913,-43.893,23.714,69.138
0.477,45.441,6.817,6.922,-43.905,23.695,69.128
0.478,45.465,6.814,6.929,-43.917,23.676,69.119
0.479,45.485,6.811,6.935,-43.927,23.660,69.113
0.480,45.498,6.808,6.941,-43.933,23.649,69.115
0.482,45.509,6.805,6.946,-43.934,23.644,69.125
0.483,45.527,6.804,6.951,-43.930,23.643,69.142
0.484,45.553,6.805,6.957,-43.923,23.647,69.166
0.485,45.586,6.808,6.965,-43.911,23.655,69.196
0.487,45.625,6.814,6.974,-43.897,23.665,69.231
0.488,45.670,6.823,6.984,-43.879,23.678,69.270
0.489,45.719,6.833,6.995,-43.858,23.693,69.312
0.490,45.771,6.844,7.007,-43.836,23.709,69.356
0.492,45.825,6.856,7.020,-43.812,23.726,69.402
0.493,45.881,6.868,7.032,-43.786,23.742,69.449
0.494,45.937,6.880,7.045,-43.759,23.758,69.495
0.496,45.992,6.892,7.056,-43.732,23.773,69.541
0.497,46.047,6.902,7.067,-43.704,23.788,69.586
0.498,46.100,6.911,7.077,-43.677,23.801,69.629
0.499,46.150,6.920,7.086,-43.650,23.814,69.670
0.501,46.199,6.927,7.094,-43.623,23.825,69.709
0.502,46.243,6.934,7.101,-43.599,23.836,69.744
0.503,46.284,6.939,7.106,-43.575,23.846,69.777
0.504,46.321,6.944,7.109,-43.554,23.854,69.805
0.506,46.353,6.948,7.111,-43.535,23.862,69.830
0.507,46.379,6.951,7.111,-43.519,23.868,69.850
0.508,46.400,6.954,7.110,-43.506,23.873,69.865
0.510,46.415,6.956,7.108,-43.496,23.877,69.876
0.511,46.426,6.957,7.105,-43.489,23.880,69.883
0.512,46.432,6.958,7.102,-43.484,23.882,69.886
0.513,46.435,6.958,7.100,-43.481,23.883,69.887
0.515,46.437,6.958,7.098,-43.481,23.883,69.885
0.516,46.440,6.957,7.097,-43.482,23.883,69.882
0.517,46.445,6.957,7.098,-43.484,23.881,69.877
0.518,46.452,6.956,7.099,-43.488,23.880,69.872
0.520,46.460,6.955,7.101,-43.493,23.877,69.867
0.521,46.468,6.954,7.104,-43.499,23.874,69.862
0.522,46.476,6.954,7.106,-43.506,23.871,69.859
0.523,46.484,6.953,7.109,-43.512,23.868,69.856
0.525,46.491,6.953,7.112,-43.518,23.865,69.853
0.526,46.497,6.954,7.114,-43.523,23.863,69.852
0.527,46.500,6.954,7.116,-43.527,23.861,69.852
0.529,46.502,6.955,7.117,-43.528,23.861,69.853
0.530,46.504,6.956,7.118,-43.526,23.861,69.855
0.531,46.511,6.956,7.117,-43.521,23.864,69.858
0.532,46.522,6.956,7.115,-43.512,23.868,69.862
0.534,46.537,6.955,7.111,-43.498,23.875,69.867
0.535,46.559,6.953,7.106,-43.479,23.884,69.873
0.536,46.586,6.949,7.099,-43.456,23.895,69.880
0.537,46.617,6.945,7.091,-43.429,23.908,69.888
0.539,46.652,6.939,7.081,-43.398,23.922,69.896
0.540,46.688,6.932,7.070,-43.366,23.935,69.905
0.541,46.725,6.924,7.058,-43.332,23.948,69.913
