"T","Distance","Radius","FreeRadius","X","Y","Z"
0.000,0.000,2.598,2.598,179.761,171.563,146.530
0.001,0.284,2.784,2.784,179.659,171.823,146.483
0.003,0.565,2.967,2.967,179.558,172.082,146.437
0.004,0.842,3.146,3.146,179.458,172.335,146.391
0.005,1.111,3.319,3.319,179.361,172.582,146.346
0.006,1.370,3.482,3.482,179.267,172.820,146.302
0.008,1.618,3.633,3.633,179.178,173.047,146.260
0.009,1.850,3.771,3.771,179.094,173.260,146.220
0.010,2.065,3.893,3.893,179.016,173.457,146.182
0.011,2.261,3.998,3.998,178.945,173.635,146.146
0.013,2.434,4.086,4.086,178.882,173.794,146.114
0.014,2.583,4.159,4.159,178.827,173.929,146.085
0.015,2.705,4.220,4.220,178.783,174.040,146.060
0.017,2.799,4.269,4.269,178.748,174.124,146.038
0.018,2.866,4.307,4.307,178.723,174.184,146.020
0.019,2.911,4.338,4.338,178.707,174.223,146.004
0.020,2.938,4.362,4.362,178.698,174.244,145.991
0.022,2.952,4.381,4.381,178.697,174.252,145.979
0.023,2.963,4.396,4.396,178.700,174.250,145.968
0.024,2.980,4.407,4.407,178.709,174.240,145.958
0.025,3.001,4.417,4.417,178.721,174.227,145.948
0.027,3.023,4.426,4.426,178.736,174.214,145.936
0.028,3.046,4.434,4.434,178.753,174.205,145.923
0.029,3.069,4.444,4.444,178.771,174.203,145.909
0.031,3.095,4.456,4.456,178.788,174.211,145.891
0.032,3.130,4.471,4.471,178.804,174.233,145.870
0.033,3.174,4.488,4.488,178.819,174.268,145.847
0.034,3.228,4.508,4.508,178.833,174.314,145.821
0.036,3.291,4.529,4.529,178.845,174.368,145.794
0.037,3.359,4.552,4.552,178.856,174.429,145.765
0.038,3.431,4.576,4.576,178.866,174.495,145.736
0.039,3.506,4.601,4.601,178.875,174.563,145.708
0.041,3.580,4.627,4.627,178.883,174.631,145.680
0.042,3.651,4.652,4.652,178.890,174.697,145.653
0.043,3.719,4.677,4.677,178.895,174.760,145.629
0.045,3.779,4.701,4.701,178.900,174.816,145.607
0.046,3.831,4.724,4.724,178.905,174.864,145.588
0.047,3.872,4.744,4.744,178.908,174.902,145.573
0.048,3.902,4.761,4.761,178.911,174.930,145.562
0.050,3.923,4.776,4.776,178.913,174.949,145.553
0.051,3.936,4.786,4.786,178.914,174.961,145.548
0.052,3.942,4.792,4.792,178.916,174.966,145.545
0.053,3.944,4.795,4.795,178.916,174.966,145.544
0.055,3.947,4.796,4.796,178.917,174.963,145.544
0.056,3.953,4.795,4.795,178.918,174.957,145.545
0.057,3.961,4.793,4.793,178.918,174.950,145.547
0.059,3.968,4.790,4.790,178.919,174.943,145.549
0.060,3.975,4.788,4.788,178.920,174.937,145.550
0.061,3.978,4.787,4.787,178.921,174.933,145.551
0.062,3.980,4.788,4.788,178.923,174.933,145.550
0.064,3.985,4.790,4.790,178.925,174.937,145.548
0.065,3.993,4.794,4.794,178.928,174.944,145.545
0.066,4.004,4.798,4.798,178.931,174.954,145.541
0.067,4.017,4.803,4.803,178.934,174.966,145.537
0.069,4.032,4.808,4.808,178.937,174.979,145.532
0.070,4.047,4.814,4.814,178.941,174.993,145.527
0.071,4.063,4.820,4.820,178.945,175.008,145.522
0.073,4.079,4.825,4.825,178.948,175.022,145.517
0.074,4.093,4.831,4.831,178.952,175.036,145.512
0.075,4.106,4.836,4.836,178.956,175.048,145.509
0.076,4.117,4.840,4.840,178.959,175.058,145.506
0.078,4.126,4.844,4.844,178.963,175.065,145.504
0.079,4.132,4.848,4.848,178.966,175.070,145.503
0.080,4.136,4.851,4.851,178.969,175.073,145.503
0.081,4.139,4.853,4.853,178.972,175.074,145.503
0.083,4.140,4.854,4.854,178.973,175.074,145.504
0.084,4.142,4.854,4.854,178.975,175.073,145.503
0.085,4.143,4.854,4.854,178.975,175.072,145.503
0.087,4.145,4.853,4.853,178.974,175.072,145.501
0.088,4.149,4.851,4.851,178.972,175.072,145.498
0.089,4.155,4.849,4.849,178.969,175.074,145.493
0.090,4.164,4.846,4.846,178.964,175.077,145.486
0.092,4.176,4.842,4.842,178.958,175.083,145.477
0.093,4.193,4.838,4.838,178.950,175.091,145.465
0.094,4.213,4.833,4.833,178.940,175.102,145.450
0.095,4.238,4.829,4.829,178.930,175.116,145.433
0.097,4.265,4.824,4.824,178.920,175.131,145.413
0.098,4.294,4.819,4.819,178.910,175.149,145.392
0.099,4.326,4.815,4.815,178.902,175.168,145.368
0.101,4.359,4.812,4.812,178.895,175.188,145.342
0.102,4.393,4.809,4.809,178.892,175.208,145.316
0.103,4.428,4.808,4.808,178.891,175.229,145.288
0.104,4.463,4.806,4.806,178.894,175.250,145.258
0.106,4.500,4.805,4.805,178.902,175.270,145.229
0.107,4.539,4.804,4.804,178.915,175.289,145.198
0.108,4.579,4.803,4.803,178.934,175.307,145.167
0.109,4.622,4.802,4.802,178.959,175.324,145.136
0.111,4.668,4.800,4.800,178.988,175.340,145.105
0.112,4.716,4.798,4.798,179.022,175.355,145.074
0.113,4.766,4.794,4.794,179.058,175.370,145.043
0.115,4.818,4.789,4.789,179.096,175.386,145.011
0.116,4.870,4.783,4.783,179.134,175.403,144.980
0.117,4.922,4.775,4.775,179.172,175.420,144.949
0.118,4.974,4.766,4.766,179.208,175.440,144.917
0.120,5.024,4.754,4.754,179.241,175.461,144.886
0.121,5.073,4.740,4.740,179.271,175.485,144.855
0.122,5.121,4.724,4.724,179.295,175.512,144.824
0.123,5.168,4.705,4.705,179.314,175.542,144.793
0.125,5.216,4.684,4.684,179.326,175.576,144.762
0.126,5.266,4.662,4.662,179.334,175.614,144.731
0.127,5.321,4.639,4.639,179.340,175.657,144.698
0.128,5.381,4.615,4.615,179.347,175.706,144.662
0.130,5.448,4.590,4.590,179.355,175.761,144.624
0.131,5.524,4.566,4.566,179.368,175.822,144.582
0.132,5.609,4.543,4.543,179.388,175.891,144.536
0.134,5.705,4.520,4.520,179.416,175.968,144.485
0.135,5.815,4.498,4.498,179.455,176.053,144.428
0.136,5.939,4.479,4.479,179.507,176.146,144.365
0.137,6.081,4.461,4.461,179.574,176.250,144.294
0.139,6.243,4.445,4.445,179.658,176.363,144.215
0.140,6.426,4.433,4.433,179.760,176.487,144.128
0.141,6.626,4.423,4.423,179.878,176.620,144.034
0.142,6.841,4.417,4.417,180.007,176.760,143.934
0.144,7.068,4.413,4.413,180.144,176.907,143.830
0.145,7.302,4.410,4.410,180.287,177.059,143.724
0.146,7.541,4.407,4.407,180.432,177.216,143.615
0.148,7.781,4.402,4.402,180.575,177.375,143.507
0.149,8.019,4.393,4.393,180.713,177.535,143.400
0.150,8.250,4.380,4.380,180.843,177.696,143.296
0.151,8.473,4.361,4.361,180.962,177.856,143.195
0.153,8.684,4.335,4.335,181.066,178.013,143.100
0.154,8.881,4.304,4.304,181.152,178.166,143.012
0.155,9.063,4.272,4.272,181.218,178.316,142.932
0.156,9.232,4.241,4.241,181.264,178.461,142.859
0.158,9.392,4.215,4.215,181.293,178.603,142.792
0.159,9.545,4.198,4.198,181.305,178.744,142.731
0.160,9.695,4.192,4.192,181.303,178.883,142.675
0.162,9.844,4.200,4.200,181.287,179.022,142.623
0.163,9.994,4.226,4.226,181.260,179.161,142.575
0.164,10.147,4.266,4.266,181.223,179.302,142.530
0.165,10.303,4.320,4.320,181.178,179.445,142.486
0.167,10.464,4.383,4.383,181.126,179.592,142.444
0.168,10.631,4.453,4.453,181.069,179.743,142.402
0.169,10.803,4.528,4.528,181.008,179.898,142.360
0.170,10.981,4.604,4.604,180.945,180.059,142.317
0.172,11.163,4.679,4.679,180.881,180.224,142.274
0.173,11.346,4.750,4.750,180.816,180.389,142.230
0.174,11.528,4.818,4.818,180.752,180.554,142.187
0.176,11.706,4.880,4.880,180.689,180.715,142.144
0.177,11.878,4.938,4.938,180.629,180.871,142.103
0.178,12.041,4.989,4.989,180.571,181.018,142.063
0.179,12.193,5.035,5.035,180.517,181.154,142.026
0.181,12.330,5.074,5.074,180.467,181.278,141.991
0.182,12.452,5.106,5.106,180.423,181.386,141.959
0.183,12.554,5.131,5.131,180.385,181.477,141.930
0.184,12.635,5.150,5.150,180.354,181.547,141.905
0.186,12.693,5.163,5.163,180.331,181.596,141.885
0.187,12.731,5.172,5.172,180.314,181.626,141.869
0.188,12.752,5.178,5.178,180.304,181.640,141.856
0.190,12.762,5.181,5.181,180.298,181.642,141.848
0.191,12.770,5.183,5.183,180.297,181.637,141.842
0.192,12.780,5.185,5.185,180.299,181.627,141.841
0.193,12.791,5.187,5.187,180.303,181.617,141.842
0.195,12.801,5.190,5.190,180.307,181.610,141.846
0.196,12.809,5.195,5.194,180.312,181.610,141.852
0.197,12.823,5.202,5.201,180.316,181.621,141.861
0.198,12.851,5.212,5.211,180.318,181.646,141.872
0.200,12.896,5.225,5.225,180.317,181.690,141.884
0.201,12.963,5.243,5.243,180.312,181.755,141.899
0.202,13.051,5.265,5.265,180.303,181.841,141.914
0.204,13.155,5.292,5.292,180.292,181.943,141.929
0.205,13.273,5.322,5.323,180.278,182.060,141.945
0.206,13.402,5.356,5.357,180.263,182.187,141.958
0.207,13.538,5.391,5.393,180.248,182.321,141.970
0.209,13.677,5.428,5.429,180.232,182.459,141.980
0.210,13.818,5.464,5.465,180.217,182.599,141.985
0.211,13.955,5.499,5.500,180.204,182.736,141.987
0.212,14.087,5.532,5.531,180.193,182.867,141.984
0.214,14.210,5.562,5.560,180.184,182.990,141.975
0.215,14.322,5.590,5.586,180.180,183.101,141.960
0.216,14.420,5.617,5.611,180.179,183.196,141.938
0.218,14.506,5.641,5.634,180.183,183.278,141.910
0.219,14.583,5.665,5.658,180.189,183.347,141.877
0.220,14.653,5.687,5.681,180.196,183.406,141.841
0.221,14.718,5.709,5.706,180.204,183.458,141.804
0.223,14.778,5.731,5.733,180.212,183.505,141.766
0.224,14.836,5.753,5.762,180.217,183.549,141.730
0.225,14.891,5.775,5.793,180.219,183.594,141.697
0.226,14.945,5.797,5.825,180.218,183.640,141.669
0.228,15.001,5.818,5.858,180.211,183.691,141.646
0.229,15.062,5.839,5.892,180.198,183.748,141.631
0.230,15.133,5.859,5.927,180.177,183.815,141.626
0.232,15.216,5.878,5.961,180.148,183.894,141.630
0.233,15.314,5.897,5.994,180.111,183.983,141.645
0.234,15.424,5.914,6.027,180.067,184.081,141.669
0.235,15.543,5.930,6.057,180.019,184.184,141.701
0.237,15.667,5.945,6.085,179.967,184.291,141.739
0.238,15.794,5.960,6.109,179.914,184.398,141.782
0.239,15.920,5.974,6.128,179.861,184.502,141.828
0.240,16.042,5.987,6.142,179.809,184.602,141.876
0.242,16.158,6.000,6.149,179.760,184.695,141.925
0.243,16.262,6.013,6.150,179.717,184.777,141.973
0.244,16.354,6.025,6.144,179.679,184.847,142.019
0.246,16.429,6.037,6.133,179.650,184.901,142.061
0.247,16.485,6.048,6.120,179.630,184.938,142.099
0.248,16.524,6.059,6.107,179.619,184.957,142.130
0.249,16.550,6.069,6.096,179.618,184.963,142.156
0.251,16.571,6.079,6.089,179.624,184.959,142.175
0.252,16.591,6.087,6.088,179.638,184.950,142.188
0.253,16.614,6.095,6.096,179.657,184.939,142.193
0.254,16.640,6.101,6.112,179.681,184.929,142.191
0.256,16.670,6.103,6.131,179.709,184.925,142.181
0.257,16.707,6.100,6.149,179.740,184.931,142.164
0.258,16.753,6.089,6.163,179.774,184.950,142.137
0.260,16.814,6.069,6.168,179.808,184.986,142.102
0.261,16.894,6.039,6.161,179.842,185.043,142.058
0.262,16.997,5.995,6.136,179.876,185.125,142.005
0.263,17.125,5.937,6.091,179.908,185.232,141.942
0.265,17.273,5.866,6.027,179.937,185.360,141.872
0.266,17.440,5.785,5.947,179.965,185.505,141.796
0.267,17.619,5.696,5.856,179.990,185.663,141.716
0.268,17.808,5.603,5.759,180.012,185.831,141.633
0.270,18.002,5.510,5.661,180.031,186.005,141.548
0.271,18.196,5.418,5.567,180.045,186.179,141.463
0.272,18.388,5.332,5.480,180.056,186.351,141.380
0.274,18.572,5.255,5.406,180.062,186.517,141.300
0.275,18.745,5.186,5.345,180.064,186.672,141.224
0.276,18.902,5.127,5.297,180.060,186.813,141.155
0.277,19.039,5.076,5.261,180.050,186.935,141.093
0.279,19.155,5.032,5.235,180.036,187.037,141.039
0.280,19.253,4.995,5.219,180.016,187.121,140.993
0.281,19.334,4.965,5.211,179.992,187.188,140.954
0.282,19.401,4.941,5.211,179.966,187.241,140.922
0.284,19.458,4.923,5.217,179.936,187.281,140.895
0.285,19.505,4.909,5.228,179.906,187.310,140.873
0.286,19.547,4.899,5.243,179.874,187.330,140.856
0.288,19.584,4.893,5.259,179.842,187.344,140.843
0.289,19.617,4.889,5.276,179.811,187.352,140.833
0.290,19.648,4.887,5.291,179.782,187.358,140.825
0.291,19.677,4.886,5.302,179.754,187.362,140.819
0.293,19.702,4.886,5.309,179.730,187.367,140.815
0.294,19.725,4.886,5.309,179.709,187.375,140.811
0.295,19.746,4.884,5.304,179.691,187.386,140.807
0.296,19.770,4.880,5.295,179.675,187.403,140.802
0.298,19.798,4.873,5.286,179.661,187.426,140.794
0.299,19.833,4.861,5.278,179.648,187.456,140.784
0.300,19.877,4.845,5.273,179.635,187.496,140.769
0.302,19.932,4.823,5.274,179.622,187.546,140.750
0.303,20.000,4.794,5.282,179.609,187.607,140.724
0.304,20.082,4.756,5.300,179.594,187.681,140.692
0.305,20.180,4.713,5.324,179.578,187.770,140.653
0.307,20.296,4.664,5.347,179.559,187.873,140.605
0.308,20.431,4.611,5.365,179.537,187.994,140.547
0.309,20.586,4.557,5.372,179.511,188.131,140.480
0.310,20.756,4.503,5.362,179.483,188.281,140.405
0.312,20.939,4.450,5.330,179.451,188.442,140.324
0.313,21.130,4.400,5.269,179.416,188.608,140.238
0.314,21.325,4.356,5.176,179.378,188.778,140.150
0.316,21.519,4.315,5.056,179.338,188.946,140.060
0.317,21.710,4.279,4.916,179.296,189.110,139.972
0.318,21.893,4.246,4.764,179.251,189.266,139.887
0.319,22.065,4.216,4.607,179.205,189.410,139.806
0.321,22.221,4.188,4.455,179.157,189.539,139.732
0.322,22.358,4.162,4.313,179.107,189.648,139.666
0.323,22.473,4.136,4.191,179.056,189.735,139.611
0.324,22.565,4.111,4.095,179.005,189.798,139.567
0.326,22.638,4.086,4.022,178.956,189.839,139.533
0.327,22.695,4.059,3.970,178.911,189.866,139.508
0.328,22.739,4.031,3.935,178.874,189.882,139.491
0.330,22.769,4.001,3.913,178.848,189.892,139.480
0.331,22.787,3.967,3.900,178.835,189.903,139.474
0.332,22.803,3.930,3.893,178.839,189.919,139.472
0.333,22.838,3.889,3.889,178.861,189.944,139.471
0.335,22.898,3.843,3.884,178.906,189.985,139.471
0.336,22.991,3.795,3.878,178.976,190.047,139.471
0.337,23.121,3.747,3.872,179.073,190.133,139.468
0.338,23.295,3.702,3.867,179.201,190.251,139.462
0.340,23.516,3.663,3.862,179.361,190.402,139.451
0.341,23.778,3.632,3.859,179.548,190.586,139.436
0.342,24.076,3.612,3.859,179.756,190.798,139.417
0.344,24.401,3.605,3.861,179.978,191.035,139.396
0.345,24.746,3.614,3.867,180.207,191.291,139.372
0.346,25.104,3.635,3.875,180.438,191.564,139.346
0.347,25.469,3.665,3.886,180.663,191.850,139.319
0.349,25.833,3.702,3.899,180.876,192.144,139.292
0.350,26.191,3.741,3.914,181.070,192.443,139.265
0.351,26.536,3.780,3.931,181.239,192.743,139.239
0.352,26.864,3.815,3.948,181.376,193.040,139.214
0.354,27.172,3.843,3.966,181.475,193.330,139.192
0.355,27.457,3.861,3.984,181.531,193.610,139.172
0.356,27.726,3.874,4.004,181.545,193.878,139.156
0.358,27.982,3.883,4.025,181.524,194.132,139.141
0.359,28.229,3.893,4.048,181.473,194.374,139.129
0.360,28.470,3.906,4.075,181.397,194.602,139.118
0.361,28.703,3.925,4.105,181.300,194.815,139.109
0.363,28.930,3.954,4.139,181.190,195.012,139.102
0.364,29.147,3.996,4.178,181.071,195.193,139.095
0.365,29.352,4.052,4.222,180.948,195.358,139.090
0.366,29.543,4.119,4.270,180.826,195.505,139.084
0.368,29.715,4.193,4.318,180.712,195.633,139.079
0.369,29.865,4.269,4.366,180.610,195.743,139.074
0.370,29.989,4.343,4.411,180.525,195.834,139.069
0.372,30.088,4.412,4.452,180.458,195.906,139.063
0.373,30.165,4.471,4.486,180.406,195.962,139.058
0.374,30.222,4.516,4.512,180.368,196.004,139.053
0.375,30.261,4.544,4.528,180.342,196.034,139.048
0.377,30.287,4.560,4.536,180.327,196.054,139.045
0.378,30.301,4.564,4.539,180.321,196.066,139.043
0.379,30.307,4.561,4.538,180.322,196.073,139.042
0.380,30.314,4.553,4.535,180.327,196.075,139.043
0.382,30.324,4.543,4.531,180.337,196.076,139.046
0.383,30.336,4.534,4.530,180.348,196.078,139.051
0.384,30.350,4.529,4.531,180.359,196.081,139.059
0.385,30.367,4.530,4.538,180.369,196.089,139.069
0.387,30.387,4.535,4.548,180.377,196.103,139.083
0.388,30.413,4.545,4.562,180.385,196.123,139.098
0.389,30.446,4.557,4.578,180.393,196.149,139.115
0.391,30.486,4.572,4.596,180.402,196.183,139.134
0.392,30.534,4.588,4.615,180.414,196.225,139.154
0.393,30.590,4.605,4.634,180.429,196.275,139.174
0.394,30.656,4.622,4.652,180.448,196.335,139.194
0.396,30.733,4.638,4.670,180.473,196.405,139.214
0.397,30.822,4.655,4.688,180.505,196.486,139.234
0.398,30.923,4.672,4.706,180.543,196.577,139.252
0.399,31.038,4.692,4.724,180.590,196.681,139.268
0.401,31.168,4.714,4.745,180.646,196.797,139.283
0.402,31.311,4.740,4.767,180.711,196.924,139.296
0.403,31.464,4.770,4.792,180.782,197.060,139.307
0.405,31.625,4.804,4.820,180.857,197.202,139.316
0.406,31.790,4.844,4.852,180.934,197.347,139.325
0.407,31.956,4.887,4.886,181.011,197.494,139.332
0.408,32.119,4.931,4.923,181.085,197.639,139.338
0.410,32.277,4.974,4.961,181.156,197.780,139.345
0.411,32.426,5.016,5.000,181.220,197.914,139.351
0.412,32.563,5.054,5.040,181.275,198.040,139.356
0.413,32.685,5.086,5.080,181.320,198.153,139.363
0.415,32.789,5.112,5.119,181.352,198.252,139.369
0.416,32.874,5.130,5.158,181.368,198.335,139.377
0.417,32.940,5.142,5.195,181.370,198.401,139.385
0.419,32.994,5.150,5.231,181.359,198.452,139.394
0.420,33.040,5.156,5.266,181.336,198.491,139.404
0.421,33.084,5.160,5.298,181.303,198.519,139.413
0.422,33.130,5.164,5.329,181.263,198.539,139.423
0.424,33.179,5.171,5.358,181.216,198.554,139.432
0.425,33.232,5.181,5.384,181.166,198.564,139.441
0.426,33.286,5.194,5.408,181.113,198.573,139.450
0.427,33.340,5.210,5.430,181.060,198.583,139.457
0.429,33.394,5.228,5.449,181.008,198.595,139.463
0.430,33.446,5.247,5.468,180.960,198.613,139.468
0.431,33.496,5.266,5.485,180.916,198.638,139.472
0.433,33.546,5.285,5.501,180.879,198.671,139.474
0.434,33.598,5.302,5.517,180.848,198.713,139.473
0.435,33.655,5.317,5.532,180.823,198.765,139.469
0.436,33.719,5.329,5.547,180.805,198.826,139.461
0.438,33.792,5.341,5.562,180.794,198.896,139.450
0.439,33.875,5.353,5.577,180.790,198.977,139.433
0.440,33.968,5.367,5.592,180.792,199.068,139.411
0.441,34.074,5.382,5.607,180.802,199.170,139.383
0.443,34.193,5.402,5.622,180.818,199.282,139.348
0.444,34.326,5.426,5.639,180.842,199.406,139.306
0.445,34.474,5.456,5.655,180.874,199.541,139.256
0.447,34.636,5.491,5.673,180.913,199.688,139.197
0.448,34.814,5.531,5.694,180.959,199.846,139.131
0.449,35.004,5.574,5.717,181.012,200.013,139.058
0.450,35.204,5.620,5.745,181.070,200.188,138.979
0.452,35.411,5.667,5.778,181.133,200.367,138.898
0.453,35.622,5.715,5.816,181.199,200.550,138.815
0.454,35.834,5.762,5.862,181.267,200.733,138.732
0.455,36.046,5.808,5.916,181.338,200.915,138.650
0.457,36.254,5.852,5.976,181.408,201.095,138.573
0.458,36.455,5.894,6.040,181.479,201.269,138.500
0.459,36.647,5.934,6.105,181.548,201.435,138.434
0.461,36.827,5.971,6.170,181.615,201.593,138.377
0.462,36.993,6.006,6.231,181.678,201.739,138.330
0.463,37.144,6.038,6.287,181.738,201.872,138.294
0.464,37.281,6.068,6.334,181.793,201.994,138.268
0.466,37.405,6.095,6.371,181.845,202.106,138.251
0.467,37.519,6.119,6.399,181.894,202.209,138.241
0.468,37.624,6.142,6.418,181.938,202.303,138.237
0.469,37.721,6.164,6.431,181.980,202.391,138.238
0.471,37.812,6.185,6.440,182.017,202.474,138.243
0.472,37.898,6.207,6.446,182.052,202.552,138.251
0.473,37.979,6.229,6.451,182.083,202.627,138.260
0.475,38.058,6.253,6.456,182.112,202.700,138.268
0.476,38.135,6.280,6.464,182.137,202.772,138.276
0.477,38.212,6.308,6.474,182.159,202.845,138.281
0.478,38.288,6.337,6.487,182.179,202.919,138.283
0.480,38.366,6.367,6.502,182.197,202.995,138.281
0.481,38.443,6.398,6.519,182.212,203.070,138.276
0.482,38.521,6.428,6.539,182.227,203.147,138.269
0.483,38.600,6.457,6.560,182.240,203.223,138.259
0.485,38.678,6.484,6.583,182.253,203.300,138.247
0.486,38.756,6.510,6.607,182.267,203.375,138.234
0.487,38.833,6.534,6.633,182.281,203.450,138.219
0.489,38.910,6.556,6.660,182.296,203.524,138.202
0.490,38.986,6.577,6.686,182.312,203.596,138.184
0.491,39.061,6.596,6.713,182.331,203.666,138.166
0.492,39.134,6.614,6.738,182.352,203.733,138.148
0.494,39.206,6.630,6.763,182.375,203.799,138.129
0.495,39.276,6.646,6.785,182.401,203.861,138.110
0.496,39.344,6.660,6.806,182.429,203.920,138.092
0.497,39.408,6.673,6.824,182.456,203.975,138.075
0.499,39.468,6.685,6.839,182.484,204.026,138.059
0.500,39.524,6.696,6.853,182.511,204.073,138.044
0.501,39.574,6.705,6.864,182.536,204.115,138.031
0.503,39.619,6.712,6.873,182.559,204.151,138.021
0.504,39.656,6.718,6.879,182.579,204.182,138.013
0.505,39.686,6.721,6.883,182.594,204.207,138.007
0.506,39.708,6.723,6.885,182.606,204.225,138.005
0.508,39.721,6.722,6.885,182.611,204.237,138.007
0.509,39.727,6.721,6.884,182.611,204.241,138.012
0.510,39.737,6.719,6.882,182.606,204.240,138.019
0.511,39.750,6.716,6.879,182.598,204.235,138.029
0.513,39.766,6.714,6.877,182.589,204.227,138.039
0.514,39.782,6.712,6.875,182.579,204.219,138.048
0.515,39.796,6.711,6.874,182.571,204.210,138.055
0.517,39.805,6.711,6.874,182.566,204.204,138.060
0.518,39.808,6.712,6.875,182.566,204.201,138.060
0.519,39.816,6.714,6.875,182.573,204.203,138.056
