"T","Distance","Radius","FreeRadius","X","Y","Z"
0.000,0.000,3.207,3.207,23.241,11.915,71.937
0.002,0.073,3.198,3.198,23.201,11.941,71.992
0.003,0.144,3.192,3.192,23.164,11.965,72.047
0.005,0.211,3.193,3.193,23.133,11.987,72.103
0.006,0.275,3.203,3.203,23.109,12.003,72.160
0.008,0.335,3.225,3.225,23.097,12.014,72.218
0.009,0.394,3.263,3.263,23.099,12.018,72.277
0.011,0.459,3.319,3.319,23.117,12.012,72.338
0.012,0.534,3.393,3.393,23.155,11.996,72.401
0.014,0.627,3.479,3.479,23.215,11.967,72.467
0.016,0.744,3.573,3.573,23.300,11.925,72.535
0.017,0.889,3.667,3.667,23.413,11.868,72.606
0.019,1.066,3.758,3.758,23.556,11.794,72.681
0.020,1.275,3.840,3.840,23.728,11.706,72.757
0.022,1.508,3.908,3.908,23.925,11.606,72.834
0.023,1.762,3.964,3.964,24.142,11.498,72.908
0.025,2.029,4.010,4.010,24.375,11.387,72.978
0.026,2.304,4.046,4.046,24.618,11.277,73.042
0.028,2.580,4.075,4.075,24.868,11.171,73.097
0.030,2.854,4.098,4.098,25.119,11.073,73.141
0.031,3.119,4.117,4.117,25.368,10.987,73.172
0.033,3.370,4.133,4.133,25.609,10.917,73.187
0.034,3.604,4.148,4.148,25.837,10.867,73.185
0.036,3.819,4.161,4.161,26.049,10.840,73.164
0.037,4.016,4.173,4.173,26.242,10.840,73.122
0.039,4.200,4.186,4.186,26.416,10.864,73.066
0.040,4.376,4.200,4.200,26.574,10.907,73.002
0.042,4.547,4.215,4.215,26.720,10.967,72.937
0.044,4.712,4.229,4.229,26.856,11.039,72.877
0.045,4.872,4.241,4.241,26.985,11.121,72.829
0.047,5.027,4.249,4.249,27.110,11.208,72.800
0.048,5.179,4.250,4.250,27.233,11.297,72.795
0.050,5.333,4.242,4.242,27.356,11.384,72.823
0.051,5.498,4.224,4.224,27.484,11.465,72.889
0.053,5.687,4.198,4.198,27.618,11.538,73.000
0.055,5.911,4.169,4.169,27.761,11.599,73.162
0.056,6.175,4.143,4.143,27.913,11.646,73.373
0.058,6.471,4.125,4.125,28.069,11.682,73.622
0.059,6.792,4.121,4.121,28.227,11.707,73.900
0.061,7.129,4.136,4.136,28.384,11.723,74.197
0.062,7.471,4.173,4.173,28.536,11.731,74.504
0.064,7.810,4.226,4.226,28.680,11.733,74.811
0.065,8.135,4.286,4.286,28.812,11.730,75.107
0.067,8.436,4.347,4.347,28.930,11.723,75.384
0.069,8.703,4.401,4.401,29.030,11.714,75.632
0.070,8.926,4.440,4.440,29.109,11.704,75.840
0.072,9.095,4.456,4.456,29.164,11.695,76.000
0.073,9.205,4.450,4.450,29.192,11.686,76.106
0.075,9.265,4.429,4.429,29.200,11.680,76.165
0.076,9.288,4.399,4.399,29.193,11.674,76.186
0.078,9.307,4.366,4.366,29.175,11.670,76.178
0.079,9.343,4.337,4.337,29.153,11.667,76.150
0.081,9.387,4.319,4.319,29.132,11.665,76.111
0.083,9.430,4.316,4.316,29.118,11.663,76.070
0.084,9.464,4.325,4.325,29.116,11.663,76.036
0.086,9.488,4.344,4.344,29.132,11.663,76.019
0.087,9.527,4.369,4.369,29.171,11.664,76.026
0.089,9.607,4.397,4.397,29.239,11.666,76.067
0.090,9.738,4.426,4.426,29.340,11.668,76.151
0.092,9.921,4.451,4.451,29.474,11.670,76.276
0.093,10.149,4.475,4.475,29.636,11.673,76.435
0.095,10.412,4.502,4.502,29.821,11.676,76.623
0.097,10.703,4.535,4.535,30.024,11.680,76.832
0.098,11.014,4.580,4.580,30.241,11.684,77.055
0.100,11.337,4.639,4.639,30.465,11.690,77.286
0.101,11.663,4.717,4.717,30.694,11.696,77.519
0.103,11.984,4.816,4.816,30.921,11.703,77.746
0.104,12.293,4.930,4.930,31.142,11.711,77.960
0.106,12.580,5.051,5.051,31.353,11.720,78.156
0.107,12.839,5.173,5.173,31.547,11.730,78.326
0.109,13.064,5.289,5.289,31.723,11.741,78.467
0.111,13.260,5.391,5.391,31.881,11.751,78.583
0.112,13.431,5.473,5.473,32.023,11.760,78.677
0.114,13.581,5.535,5.535,32.152,11.766,78.753
0.115,13.713,5.582,5.582,32.268,11.768,78.817
0.117,13.832,5.618,5.618,32.374,11.765,78.871
0.118,13.942,5.649,5.649,32.470,11.756,78.921
0.120,14.046,5.678,5.678,32.560,11.739,78.971
0.121,14.149,5.710,5.710,32.645,11.714,79.025
0.123,14.257,5.749,5.749,32.726,11.678,79.086
0.125,14.375,5.794,5.794,32.805,11.631,79.160
0.126,14.508,5.843,5.843,32.884,11.572,79.249
0.128,14.657,5.896,5.896,32.963,11.502,79.354
0.129,14.819,5.953,5.953,33.042,11.422,79.472
0.131,14.990,6.011,6.011,33.119,11.336,79.598
0.132,15.167,6.070,6.070,33.193,11.245,79.730
0.134,15.347,6.129,6.129,33.266,11.150,79.865
0.136,15.527,6.186,6.186,33.334,11.055,80.001
0.137,15.702,6.240,6.240,33.399,10.961,80.133
0.139,15.868,6.289,6.289,33.459,10.870,80.259
0.140,16.023,6.333,6.333,33.514,10.784,80.376
0.142,16.163,6.370,6.370,33.563,10.706,80.481
0.143,16.284,6.398,6.398,33.605,10.637,80.570
0.145,16.384,6.421,6.421,33.641,10.578,80.643
0.146,16.465,6.438,6.438,33.670,10.529,80.701
0.148,16.530,6.451,6.451,33.695,10.488,80.745
0.150,16.581,6.463,6.463,33.716,10.456,80.778
0.151,16.619,6.473,6.473,33.733,10.430,80.801
0.153,16.649,6.485,6.485,33.748,10.410,80.817
0.154,16.671,6.497,6.497,33.762,10.396,80.826
0.156,16.688,6.509,6.510,33.775,10.385,80.831
0.157,16.704,6.522,6.522,33.789,10.378,80.834
0.159,16.720,6.534,6.534,33.804,10.373,80.836
0.160,16.739,6.545,6.545,33.822,10.370,80.839
0.162,16.760,6.555,6.555,33.843,10.367,80.845
0.164,16.786,6.563,6.562,33.866,10.364,80.855
0.165,16.814,6.569,6.568,33.892,10.363,80.867
0.167,16.845,6.573,6.571,33.918,10.362,80.883
0.168,16.878,6.575,6.573,33.946,10.363,80.901
0.170,16.913,6.576,6.574,33.973,10.365,80.922
0.171,16.948,6.574,6.573,33.999,10.368,80.946
0.173,16.984,6.570,6.572,34.023,10.374,80.973
0.174,17.021,6.564,6.568,34.045,10.381,81.002
0.176,17.059,6.557,6.563,34.063,10.391,81.033
0.178,17.097,6.549,6.556,34.078,10.403,81.066
0.179,17.136,6.540,6.547,34.088,10.417,81.101
0.181,17.177,6.531,6.535,34.093,10.435,81.138
0.182,17.221,6.523,6.521,34.098,10.456,81.176
0.184,17.269,6.514,6.504,34.106,10.480,81.216
0.185,17.320,6.504,6.486,34.119,10.508,81.257
0.187,17.377,6.492,6.468,34.140,10.540,81.299
0.188,17.442,6.478,6.453,34.174,10.576,81.342
0.190,17.519,6.461,6.441,34.223,10.616,81.385
0.192,17.611,6.438,6.434,34.291,10.662,81.428
0.193,17.722,6.411,6.433,34.380,10.712,81.471
0.195,17.856,6.378,6.435,34.494,10.767,81.513
0.196,18.016,6.340,6.438,34.636,10.828,81.555
0.198,18.206,6.297,6.438,34.809,10.895,81.597
0.199,18.420,6.250,6.430,35.007,10.966,81.637
0.201,18.654,6.199,6.411,35.226,11.040,81.675
0.202,18.901,6.145,6.377,35.458,11.115,81.712
0.204,19.154,6.089,6.328,35.698,11.191,81.746
0.206,19.408,6.031,6.267,35.938,11.264,81.778
0.207,19.656,5.974,6.200,36.174,11.334,81.807
0.209,19.891,5.919,6.131,36.398,11.400,81.832
0.210,20.107,5.869,6.065,36.605,11.459,81.854
0.212,20.297,5.823,6.005,36.788,11.510,81.872
0.213,20.456,5.785,5.957,36.940,11.551,81.886
0.215,20.577,5.755,5.921,37.057,11.582,81.895
0.217,20.659,5.731,5.896,37.136,11.602,81.899
0.218,20.707,5.715,5.880,37.183,11.613,81.900
0.220,20.728,5.706,5.872,37.204,11.616,81.897
0.221,20.733,5.705,5.872,37.204,11.614,81.894
0.223,20.749,5.710,5.878,37.189,11.609,81.889
0.224,20.775,5.721,5.889,37.165,11.603,81.884
0.226,20.805,5.736,5.902,37.136,11.596,81.880
0.227,20.832,5.751,5.916,37.109,11.592,81.878
0.229,20.852,5.764,5.927,37.090,11.593,81.878
0.231,20.862,5.773,5.934,37.083,11.599,81.883
0.232,20.882,5.773,5.935,37.094,11.613,81.891
0.234,20.926,5.764,5.926,37.129,11.637,81.905
0.235,20.993,5.746,5.909,37.184,11.670,81.923
0.237,21.078,5.721,5.887,37.256,11.709,81.946
0.238,21.178,5.691,5.860,37.342,11.754,81.971
0.240,21.290,5.659,5.831,37.439,11.803,81.998
0.241,21.409,5.627,5.802,37.542,11.854,82.027
0.243,21.531,5.596,5.773,37.648,11.907,82.056
0.245,21.653,5.568,5.748,37.755,11.959,82.086
0.246,21.771,5.543,5.725,37.857,12.009,82.114
0.248,21.880,5.521,5.705,37.953,12.055,82.140
0.249,21.977,5.500,5.688,38.037,12.096,82.164
0.251,22.058,5.482,5.674,38.107,12.131,82.184
0.252,22.122,5.466,5.663,38.163,12.159,82.200
0.254,22.173,5.452,5.655,38.207,12.181,82.214
0.255,22.213,5.439,5.649,38.242,12.198,82.224
0.257,22.246,5.427,5.644,38.271,12.210,82.231
0.259,22.274,5.416,5.639,38.297,12.220,82.237
0.260,22.300,5.406,5.632,38.322,12.226,82.240
0.262,22.329,5.396,5.623,38.350,12.232,82.242
0.263,22.362,5.386,5.609,38.383,12.236,82.242
0.265,22.404,5.376,5.591,38.425,12.241,82.242
0.266,22.456,5.363,5.568,38.477,12.246,82.241
0.268,22.523,5.349,5.540,38.543,12.254,82.240
0.269,22.605,5.330,5.507,38.625,12.264,82.238
0.271,22.704,5.306,5.470,38.723,12.276,82.237
0.273,22.817,5.277,5.428,38.835,12.290,82.236
0.274,22.944,5.241,5.382,38.962,12.304,82.235
0.276,23.084,5.199,5.333,39.101,12.319,82.233
0.277,23.236,5.151,5.281,39.252,12.333,82.231
0.279,23.399,5.099,5.229,39.415,12.345,82.228
0.280,23.572,5.044,5.177,39.587,12.355,82.224
0.282,23.755,4.987,5.127,39.770,12.363,82.219
0.283,23.946,4.928,5.081,39.960,12.367,82.213
0.285,24.144,4.869,5.038,40.158,12.368,82.205
0.287,24.349,4.811,4.999,40.363,12.363,82.196
0.288,24.560,4.755,4.962,40.574,12.354,82.187
0.290,24.777,4.703,4.929,40.790,12.341,82.178
0.291,24.999,4.656,4.898,41.012,12.326,82.170
0.293,25.225,4.616,4.868,41.237,12.308,82.165
0.294,25.454,4.583,4.840,41.466,12.289,82.165
0.296,25.687,4.557,4.814,41.697,12.269,82.169
0.298,25.922,4.538,4.788,41.932,12.250,82.180
0.299,26.160,4.524,4.762,42.168,12.232,82.198
0.301,26.399,4.515,4.736,42.405,12.216,82.225
0.302,26.640,4.509,4.710,42.643,12.203,82.262
0.304,26.883,4.507,4.684,42.881,12.194,82.311
0.305,27.128,4.508,4.657,43.118,12.189,82.371
0.307,27.372,4.511,4.633,43.351,12.187,82.441
0.308,27.612,4.518,4.614,43.579,12.188,82.519
0.310,27.847,4.528,4.603,43.797,12.191,82.604
0.312,28.072,4.542,4.601,44.005,12.195,82.693
0.313,28.286,4.560,4.612,44.198,12.200,82.785
0.315,28.485,4.581,4.636,44.374,12.205,82.877
0.316,28.667,4.604,4.671,44.531,12.209,82.969
0.318,28.828,4.626,4.713,44.666,12.211,83.057
0.319,28.966,4.646,4.758,44.775,12.210,83.140
0.321,29.078,4.660,4.803,44.858,12.206,83.217
0.322,29.165,4.667,4.843,44.911,12.199,83.285
0.324,29.230,4.664,4.876,44.937,12.187,83.343
0.326,29.280,4.652,4.899,44.943,12.174,83.392
0.327,29.323,4.635,4.913,44.936,12.159,83.431
0.329,29.358,4.614,4.920,44.923,12.145,83.460
0.330,29.384,4.594,4.920,44.910,12.133,83.480
0.332,29.399,4.579,4.914,44.905,12.123,83.489
0.333,29.409,4.571,4.903,44.914,12.118,83.489
0.335,29.441,4.574,4.889,44.943,12.118,83.478
0.336,29.502,4.587,4.876,45.001,12.125,83.457
0.338,29.601,4.612,4.867,45.093,12.140,83.426
0.340,29.743,4.646,4.868,45.227,12.164,83.385
0.341,29.931,4.692,4.881,45.405,12.197,83.333
0.343,30.159,4.747,4.912,45.620,12.239,83.274
0.344,30.416,4.813,4.964,45.865,12.288,83.208
0.346,30.696,4.887,5.036,46.130,12.340,83.137
0.347,30.988,4.966,5.121,46.407,12.396,83.063
0.349,31.286,5.047,5.210,46.689,12.453,82.988
0.350,31.579,5.126,5.298,46.967,12.508,82.914
0.352,31.859,5.201,5.375,47.233,12.561,82.843
0.354,32.118,5.269,5.436,47.479,12.610,82.776
0.355,32.347,5.326,5.475,47.695,12.652,82.716
0.357,32.537,5.373,5.494,47.875,12.687,82.663
0.358,32.681,5.411,5.500,48.010,12.711,82.620
0.360,32.780,5.441,5.498,48.103,12.727,82.588
0.361,32.842,5.465,5.492,48.159,12.735,82.565
0.363,32.872,5.483,5.489,48.187,12.737,82.553
0.364,32.877,5.495,5.492,48.192,12.735,82.551
0.366,32.891,5.504,5.504,48.181,12.731,82.559
0.368,32.918,5.510,5.524,48.161,12.726,82.577
0.369,32.954,5.513,5.550,48.138,12.722,82.604
0.371,32.995,5.515,5.581,48.120,12.720,82.641
0.372,33.042,5.516,5.615,48.114,12.723,82.687
0.374,33.100,5.518,5.651,48.125,12.732,82.743
0.375,33.176,5.520,5.688,48.161,12.749,82.808
0.377,33.277,5.525,5.726,48.225,12.774,82.882
0.379,33.400,5.533,5.764,48.314,12.807,82.962
0.380,33.543,5.548,5.802,48.422,12.845,83.046
0.382,33.700,5.569,5.840,48.546,12.887,83.132
0.383,33.866,5.599,5.878,48.682,12.932,83.218
0.385,34.037,5.640,5.916,48.825,12.978,83.300
0.386,34.209,5.689,5.953,48.970,13.024,83.379
0.388,34.375,5.744,5.987,49.114,13.068,83.449
0.389,34.532,5.802,6.019,49.252,13.108,83.511
0.391,34.674,5.860,6.046,49.380,13.143,83.561
0.393,34.796,5.914,6.068,49.494,13.172,83.597
0.394,34.896,5.962,6.084,49.589,13.194,83.617
0.396,34.975,6.001,6.094,49.667,13.208,83.623
0.397,35.039,6.032,6.098,49.730,13.215,83.619
0.399,35.091,6.056,6.098,49.781,13.217,83.609
0.400,35.134,6.072,6.095,49.822,13.214,83.595
0.402,35.172,6.082,6.092,49.856,13.207,83.581
0.403,35.205,6.087,6.088,49.887,13.197,83.571
0.405,35.237,6.087,6.087,49.916,13.185,83.569
0.407,35.271,6.083,6.087,49.946,13.172,83.578
0.408,35.314,6.077,6.091,49.980,13.159,83.602
0.410,35.374,6.070,6.096,50.021,13.146,83.643
0.411,35.456,6.062,6.104,50.071,13.135,83.706
0.413,35.561,6.056,6.114,50.132,13.127,83.792
0.414,35.687,6.053,6.127,50.202,13.121,83.897
0.416,35.830,6.053,6.142,50.280,13.117,84.017
0.417,35.985,6.057,6.159,50.363,13.115,84.148
0.419,36.149,6.064,6.176,50.451,13.117,84.286
0.421,36.318,6.076,6.194,50.541,13.121,84.428
0.422,36.486,6.092,6.211,50.633,13.127,84.570
0.424,36.651,6.112,6.227,50.725,13.137,84.707
0.425,36.809,6.136,6.241,50.814,13.149,84.835
0.427,36.954,6.163,6.252,50.900,13.164,84.952
0.428,37.084,6.191,6.261,50.981,13.182,85.052
0.430,37.197,6.217,6.266,51.055,13.203,85.134
0.431,37.292,6.240,6.269,51.123,13.227,85.197
0.433,37.374,6.256,6.268,51.184,13.253,85.244
0.435,37.445,6.265,6.263,51.240,13.281,85.278
0.436,37.508,6.264,6.255,51.290,13.311,85.302
0.438,37.565,6.257,6.245,51.336,13.341,85.317
0.439,37.617,6.246,6.234,51.377,13.371,85.328
0.441,37.665,6.234,6.225,51.414,13.402,85.335
0.442,37.711,6.224,6.219,51.447,13.432,85.342
0.444,37.754,6.219,6.218,51.477,13.462,85.352
0.445,37.796,6.221,6.222,51.505,13.490,85.366
0.447,37.838,6.229,6.232,51.529,13.516,85.388
0.449,37.884,6.240,6.244,51.553,13.541,85.418
0.450,37.934,6.252,6.255,51.575,13.565,85.456
0.452,37.990,6.260,6.262,51.598,13.589,85.501
0.453,38.050,6.262,6.263,51.622,13.615,85.550
0.455,38.116,6.254,6.254,51.648,13.643,85.604
0.456,38.188,6.234,6.234,51.678,13.673,85.662
0.458,38.264,6.206,6.205,51.711,13.708,85.721
0.460,38.346,6.170,6.169,51.750,13.748,85.781
0.461,38.434,6.131,6.130,51.795,13.794,85.841
0.463,38.529,6.090,6.089,51.847,13.847,85.899
0.464,38.631,6.050,6.049,51.908,13.907,85.956
0.466,38.742,6.013,6.013,51.977,13.976,86.009
0.467,38.861,5.981,5.981,52.054,14.053,86.058
0.469,38.985,5.953,5.953,52.136,14.134,86.104
0.470,39.113,5.930,5.930,52.221,14.219,86.146
0.472,39.242,5.912,5.912,52.308,14.306,86.185
0.474,39.369,5.898,5.898,52.394,14.392,86.221
0.475,39.491,5.889,5.889,52.477,14.476,86.253
0.477,39.607,5.884,5.885,52.556,14.556,86.281
0.478,39.714,5.883,5.884,52.628,14.631,86.306
0.480,39.808,5.884,5.886,52.692,14.697,86.327
0.481,39.888,5.887,5.889,52.745,14.754,86.345
0.483,39.951,5.889,5.894,52.785,14.800,86.359
0.484,39.996,5.891,5.898,52.812,14.835,86.370
0.486,40.026,5.890,5.902,52.828,14.858,86.378
0.488,40.044,5.888,5.904,52.836,14.873,86.384
0.489,40.052,5.884,5.905,52.837,14.881,86.387
0.491,40.057,5.879,5.905,52.832,14.882,86.390
0.492,40.065,5.873,5.904,52.824,14.879,86.391
0.494,40.076,5.868,5.902,52.816,14.872,86.391
0.495,40.088,5.863,5.898,52.808,14.863,86.391
0.497,40.099,5.858,5.894,52.803,14.854,86.392
0.498,40.107,5.855,5.889,52.802,14.846,86.393
0.500,40.116,5.853,5.883,52.809,14.840,86.395
0.502,40.131,5.852,5.875,52.823,14.837,86.398
0.503,40.153,5.853,5.867,52.844,14.838,86.404
0.505,40.180,5.855,5.858,52.870,14.844,86.411
0.506,40.212,5.858,5.847,52.899,14.853,86.421
0.508,40.247,5.861,5.836,52.929,14.866,86.434
0.509,40.285,5.862,5.826,52.958,14.883,86.450
0.511,40.324,5.858,5.816,52.984,14.905,86.469
0.512,40.365,5.846,5.808,53.006,14.931,86.492
0.514,40.409,5.824,5.803,53.022,14.962,86.519
0.516,40.456,5.790,5.801,53.029,14.997,86.551
0.517,40.510,5.744,5.802,53.026,15.036,86.587
0.519,40.572,5.689,5.803,53.010,15.081,86.627
0.520,40.645,5.630,5.802,52.986,15.130,86.675
0.522,40.729,5.571,5.796,52.957,15.185,86.732
0.523,40.826,5.515,5.781,52.929,15.246,86.802
0.525,40.936,5.467,5.756,52.910,15.313,86.887
0.526,41.064,5.431,5.716,52.903,15.387,86.992
0.528,41.214,5.404,5.664,52.916,15.467,87.118
0.530,41.393,5.380,5.599,52.953,15.556,87.268
0.531,41.607,5.353,5.523,53.022,15.652,87.447
0.533,41.863,5.319,5.436,53.127,15.756,87.656
0.534,42.169,5.271,5.341,53.274,15.870,87.898
0.536,42.531,5.204,5.238,53.469,15.992,88.178
0.537,42.953,5.120,5.131,53.715,16.124,88.495
0.539,43.426,5.030,5.031,54.005,16.262,88.843
0.540,43.939,4.948,4.948,54.328,16.405,89.213
0.542,44.478,4.887,4.892,54.677,16.551,89.598
0.544,45.031,4.861,4.873,55.040,16.696,89.989
0.545,45.586,4.883,4.902,55.410,16.839,90.378
0.547,46.131,4.964,4.987,55.776,16.978,90.757
0.548,46.652,5.093,5.117,56.129,17.109,91.117
0.550,47.138,5.253,5.274,56.459,17.231,91.451
0.551,47.575,5.423,5.440,56.758,17.341,91.751
0.553,47.951,5.586,5.597,57.016,17.437,92.007
0.555,48.255,5.722,5.727,57.224,17.516,92.213
0.556,48.485,5.814,5.812,57.382,17.579,92.369
0.558,48.650,5.854,5.845,57.494,17.628,92.480
0.559,48.758,5.852,5.839,57.567,17.664,92.551
0.561,48.819,5.823,5.807,57.607,17.689,92.590
0.562,48.842,5.777,5.761,57.619,17.705,92.601
0.564,48.859,5.728,5.717,57.608,17.714,92.591
0.565,48.897,5.688,5.686,57.582,17.718,92.565
0.567,48.948,5.668,5.681,57.544,17.719,92.530
0.569,49.006,5.668,5.699,57.502,17.717,92.490
0.570,49.062,5.681,5.733,57.461,17.716,92.453
0.572,49.108,5.704,5.776,57.426,17.717,92.423
0.573,49.138,5.731,5.821,57.401,17.721,92.405
0.575,49.156,5.758,5.860,57.387,17.728,92.398
0.576,49.166,5.779,5.886,57.380,17.736,92.398
0.578,49.177,5.792,5.896,57.381,17.744,92.405
0.579,49.191,5.799,5.894,57.387,17.752,92.415
0.581,49.209,5.800,5.883,57.398,17.758,92.427
0.583,49.227,5.798,5.867,57.411,17.761,92.439
0.584,49.244,5.795,5.849,57.426,17.760,92.448
0.586,49.261,5.791,5.832,57.441,17.754,92.453
0.587,49.279,5.789,5.819,57.454,17.742,92.451
0.589,49.303,5.788,5.812,57.465,17.724,92.440
0.590,49.338,5.788,5.807,57.471,17.697,92.418
0.592,49.383,5.788,5.805,57.475,17.665,92.386
0.593,49.434,5.788,5.804,57.480,17.630,92.350
0.595,49.485,5.788,5.803,57.487,17.597,92.311
0.597,49.532,5.787,5.801,57.501,17.570,92.275
0.598,49.575,5.784,5.797,57.524,17.551,92.245
0.600,49.616,5.780,5.790,57.559,17.546,92.224
0.601,49.667,5.773,5.780,57.609,17.557,92.217
0.603,49.743,5.762,5.768,57.677,17.589,92.227
0.604,49.853,5.749,5.751,57.766,17.645,92.258
0.606,50.004,5.730,5.731,57.878,17.729,92.314
0.607,50.205,5.708,5.706,58.018,17.845,92.399
0.609,50.455,5.685,5.682,58.185,17.993,92.513
0.611,50.749,5.666,5.662,58.375,18.169,92.652
0.612,51.076,5.655,5.650,58.582,18.366,92.811
0.614,51.426,5.656,5.652,58.800,18.579,92.984
0.615,51.791,5.675,5.673,59.025,18.800,93.165
0.617,52.159,5.714,5.716,59.251,19.026,93.349
0.618,52.522,5.775,5.781,59.473,19.248,93.531
0.620,52.869,5.849,5.861,59.684,19.461,93.705
0.621,53.191,5.930,5.948,59.880,19.660,93.865
0.623,53.478,6.010,6.034,60.056,19.838,94.007
0.625,53.721,6.083,6.113,60.205,19.990,94.124
0.626,53.911,6.141,6.177,60.324,20.109,94.212
0.628,54.048,6.178,6.219,60.411,20.196,94.272
0.629,54.139,6.197,6.242,60.471,20.255,94.307
0.631,54.190,6.200,6.248,60.507,20.288,94.322
0.632,54.208,6.191,6.241,60.520,20.299,94.321
0.634,54.225,6.175,6.224,60.515,20.292,94.306
0.636,54.263,6.154,6.202,60.495,20.269,94.283
0.637,54.319,6.133,6.177,60.461,20.233,94.255
0.639,54.387,6.114,6.152,60.419,20.189,94.227
0.640,54.462,6.096,6.127,60.369,20.139,94.201
0.642,54.539,6.079,6.102,60.316,20.087,94.182
0.643,54.614,6.064,6.079,60.262,20.035,94.174
0.645,54.684,6.051,6.058,60.211,19.987,94.179
0.646,54.748,6.039,6.039,60.165,19.946,94.194
0.648,54.804,6.029,6.023,60.126,19.913,94.217
0.650,54.850,6.020,6.010,60.098,19.892,94.247
0.651,54.887,6.014,6.002,60.084,19.884,94.280
0.653,54.923,6.010,5.998,60.085,19.891,94.315
0.654,54.970,6.009,5.999,60.106,19.917,94.349
0.656,55.040,6.010,6.006,60.148,19.964,94.380
0.657,55.140,6.015,6.020,60.214,20.034,94.405
0.659,55.275,6.022,6.038,60.307,20.130,94.423
0.660,55.449,6.029,6.059,60.431,20.253,94.431
0.662,55.668,6.036,6.079,60.586,20.407,94.426
0.664,55.926,6.040,6.095,60.770,20.587,94.410
0.665,56.218,6.039,6.104,60.979,20.789,94.384
0.667,56.537,6.033,6.104,61.208,21.009,94.349
0.668,56.877,6.019,6.093,61.452,21.242,94.307
0.670,57.231,6.001,6.073,61.706,21.484,94.259
0.671,57.592,5.980,6.050,61.966,21.729,94.207
0.673,57.953,5.961,6.028,62.227,21.972,94.152
0.674,58.308,5.946,6.012,62.485,22.210,94.095
0.676,58.650,5.938,6.005,62.734,22.438,94.038
