"T","Distance","Radius","FreeRadius","X","Y","Z"
0.000,0.000,3.286,3.286,253.538,182.504,209.136
0.002,0.034,3.288,3.288,253.539,182.526,209.163
0.003,0.067,3.291,3.291,253.539,182.547,209.188
0.005,0.096,3.295,3.295,253.540,182.565,209.210
0.007,0.120,3.300,3.300,253.540,182.579,209.230
0.009,0.137,3.308,3.308,253.540,182.587,209.245
0.010,0.146,3.317,3.317,253.540,182.589,209.254
0.012,0.153,3.328,3.328,253.540,182.583,209.257
0.014,0.169,3.338,3.338,253.539,182.567,209.251
0.016,0.199,3.345,3.345,253.538,182.541,209.237
0.017,0.244,3.345,3.345,253.537,182.503,209.212
0.019,0.307,3.336,3.336,253.535,182.452,209.176
0.021,0.389,3.314,3.314,253.533,182.386,209.128
0.022,0.488,3.282,3.282,253.531,182.306,209.069
0.024,0.601,3.246,3.246,253.530,182.214,209.004
0.026,0.721,3.214,3.214,253.530,182.115,208.937
0.028,0.844,3.195,3.195,253.535,182.009,208.874
0.029,0.965,3.197,3.197,253.543,181.901,208.820
0.031,1.081,3.228,3.228,253.557,181.793,208.778
0.033,1.190,3.286,3.286,253.578,181.689,208.755
0.035,1.293,3.363,3.363,253.606,181.590,208.756
0.036,1.393,3.449,3.449,253.642,181.501,208.784
0.038,1.503,3.532,3.532,253.689,181.423,208.844
0.040,1.633,3.603,3.603,253.746,181.360,208.943
0.041,1.796,3.652,3.652,253.816,181.314,209.083
0.043,1.991,3.680,3.680,253.894,181.284,209.259
0.045,2.214,3.693,3.693,253.980,181.267,209.465
0.047,2.458,3.700,3.700,254.068,181.263,209.692
0.048,2.714,3.709,3.709,254.158,181.267,209.932
0.050,2.975,3.727,3.727,254.244,181.277,210.177
0.052,3.231,3.762,3.762,254.326,181.292,210.420
0.054,3.476,3.809,3.809,254.398,181.308,210.653
0.055,3.700,3.864,3.864,254.459,181.324,210.869
0.057,3.896,3.918,3.918,254.505,181.337,211.058
0.059,4.054,3.964,3.964,254.533,181.345,211.214
0.060,4.169,3.996,3.996,254.541,181.344,211.329
0.062,4.241,4.008,4.008,254.528,181.336,211.399
0.064,4.288,4.003,4.003,254.499,181.321,211.432
0.066,4.331,3.989,3.989,254.461,181.301,211.435
0.067,4.381,3.971,3.971,254.419,181.280,211.416
0.069,4.436,3.958,3.958,254.380,181.260,211.382
0.071,4.490,3.955,3.955,254.350,181.243,211.342
0.073,4.534,3.966,3.966,254.335,181.231,211.302
0.074,4.566,3.987,3.987,254.340,181.227,211.270
0.076,4.603,4.010,4.010,254.372,181.234,211.255
0.078,4.671,4.027,4.027,254.437,181.253,211.263
0.079,4.787,4.033,4.033,254.541,181.287,211.302
0.081,4.962,4.019,4.019,254.689,181.339,211.380
0.083,5.194,3.984,3.984,254.878,181.406,211.495
0.085,5.472,3.938,3.938,255.102,181.487,211.640
0.086,5.787,3.892,3.892,255.351,181.578,211.809
0.088,6.128,3.856,3.856,255.619,181.676,211.996
0.090,6.484,3.841,3.841,255.897,181.778,212.194
0.092,6.846,3.859,3.859,256.178,181.881,212.397
0.093,7.202,3.910,3.910,256.454,181.982,212.598
0.095,7.542,3.982,3.982,256.717,182.079,212.791
0.097,7.856,4.059,4.059,256.960,182.167,212.970
0.098,8.133,4.128,4.128,257.174,182.244,213.127
0.100,8.363,4.174,4.174,257.353,182.307,213.257
0.102,8.538,4.183,4.183,257.490,182.354,213.355
0.104,8.663,4.156,4.156,257.589,182.386,213.424
0.105,8.743,4.107,4.107,257.654,182.405,213.467
0.107,8.785,4.048,4.048,257.690,182.414,213.488
0.109,8.795,3.996,3.996,257.700,182.413,213.490
0.111,8.814,3.962,3.962,257.689,182.406,213.476
0.112,8.853,3.960,3.960,257.661,182.393,213.451
0.114,8.907,3.990,3.990,257.622,182.377,213.419
0.116,8.970,4.039,4.039,257.574,182.360,213.381
0.117,9.036,4.096,4.096,257.523,182.344,213.343
0.119,9.100,4.151,4.151,257.472,182.330,213.307
0.121,9.155,4.193,4.193,257.426,182.320,213.278
0.123,9.200,4.212,4.212,257.387,182.315,213.256
0.124,9.234,4.210,4.210,257.356,182.314,213.241
0.126,9.258,4.194,4.194,257.334,182.316,213.233
0.128,9.273,4.170,4.170,257.319,182.319,213.231
0.130,9.281,4.146,4.146,257.313,182.323,213.235
0.131,9.292,4.128,4.128,257.317,182.326,213.245
0.133,9.312,4.121,4.121,257.330,182.328,213.259
0.135,9.342,4.123,4.123,257.353,182.327,213.278
0.136,9.382,4.129,4.129,257.386,182.323,213.302
0.138,9.435,4.136,4.136,257.430,182.314,213.328
0.140,9.499,4.138,4.138,257.485,182.299,213.358
0.142,9.576,4.132,4.132,257.552,182.278,213.391
0.143,9.665,4.115,4.115,257.629,182.250,213.426
0.145,9.765,4.090,4.090,257.716,182.218,213.461
0.147,9.874,4.059,4.059,257.813,182.181,213.498
0.149,9.992,4.026,4.026,257.918,182.141,213.534
0.150,10.118,3.995,3.995,258.031,182.099,213.570
0.152,10.250,3.968,3.968,258.150,182.056,213.603
0.154,10.387,3.948,3.948,258.276,182.013,213.635
0.155,10.528,3.934,3.934,258.408,181.970,213.663
0.157,10.672,3.926,3.926,258.544,181.929,213.687
0.159,10.819,3.923,3.923,258.685,181.891,213.707
0.161,10.968,3.924,3.924,258.829,181.856,213.721
0.162,11.117,3.929,3.929,258.975,181.825,213.731
0.164,11.268,3.937,3.937,259.122,181.796,213.737
0.166,11.418,3.948,3.948,259.270,181.768,213.742
0.168,11.568,3.961,3.961,259.417,181.739,213.747
0.169,11.717,3.977,3.977,259.563,181.708,213.755
0.171,11.865,3.996,3.996,259.705,181.674,213.767
0.173,12.010,4.016,4.016,259.844,181.634,213.786
0.174,12.155,4.036,4.036,259.979,181.588,213.813
0.176,12.299,4.056,4.056,260.107,181.535,213.849
0.178,12.444,4.073,4.073,260.228,181.471,213.898
0.180,12.593,4.085,4.085,260.342,181.397,213.961
0.181,12.750,4.090,4.090,260.447,181.311,214.039
0.183,12.914,4.088,4.088,260.543,181.215,214.131
0.185,13.085,4.079,4.079,260.630,181.111,214.234
0.187,13.260,4.069,4.069,260.709,181.001,214.347
0.188,13.438,4.060,4.060,260.780,180.890,214.465
0.190,13.614,4.057,4.057,260.843,180.779,214.587
0.192,13.786,4.064,4.064,260.898,180.671,214.709
0.193,13.951,4.082,4.082,260.946,180.568,214.829
0.195,14.106,4.110,4.110,260.986,180.474,214.945
0.197,14.246,4.142,4.142,261.020,180.392,215.053
0.199,14.369,4.173,4.173,261.048,180.323,215.151
0.200,14.471,4.197,4.197,261.069,180.271,215.237
0.202,14.553,4.209,4.209,261.085,180.236,215.309
0.204,14.619,4.206,4.206,261.099,180.215,215.370
0.206,14.676,4.192,4.192,261.114,180.203,215.423
0.207,14.729,4.175,4.175,261.133,180.196,215.473
0.209,14.786,4.160,4.160,261.161,180.190,215.522
0.211,14.851,4.153,4.153,261.199,180.180,215.573
0.212,14.931,4.162,4.162,261.252,180.162,215.631
0.214,15.034,4.190,4.190,261.323,180.132,215.699
0.216,15.165,4.234,4.234,261.414,180.084,215.779
0.218,15.330,4.293,4.293,261.530,180.016,215.876
0.219,15.538,4.363,4.363,261.674,179.923,215.993
0.221,15.793,4.442,4.442,261.848,179.800,216.132
0.223,16.092,4.528,4.528,262.051,179.649,216.293
0.225,16.427,4.619,4.619,262.275,179.476,216.472
0.226,16.788,4.717,4.717,262.514,179.286,216.664
0.228,17.165,4.827,4.827,262.763,179.085,216.864
0.230,17.549,4.950,4.950,263.013,178.879,217.070
0.231,17.930,5.089,5.089,263.259,178.672,217.275
0.233,18.300,5.246,5.246,263.495,178.471,217.477
0.235,18.648,5.418,5.418,263.713,178.282,217.670
0.237,18.964,5.593,5.593,263.908,178.109,217.850
0.238,19.241,5.757,5.757,264.073,177.958,218.014
0.240,19.468,5.900,5.900,264.201,177.836,218.156
0.242,19.641,6.008,6.008,264.288,177.745,218.274
0.244,19.764,6.072,6.072,264.340,177.684,218.368
0.245,19.847,6.092,6.092,264.364,177.649,218.439
0.247,19.898,6.081,6.081,264.368,177.637,218.488
0.249,19.929,6.050,6.050,264.358,177.643,218.517
0.250,19.958,6.010,6.010,264.341,177.665,218.526
0.252,19.996,5.974,5.974,264.326,177.699,218.518
0.254,20.045,5.951,5.951,264.319,177.741,218.493
0.256,20.108,5.940,5.940,264.328,177.788,218.453
0.257,20.187,5.931,5.931,264.360,177.836,218.398
0.259,20.290,5.917,5.917,264.422,177.882,218.331
0.261,20.423,5.890,5.890,264.522,177.922,218.252
0.263,20.590,5.842,5.842,264.659,177.954,218.162
0.264,20.786,5.767,5.767,264.828,177.980,218.065
0.266,21.005,5.671,5.670,265.021,177.998,217.963
0.268,21.241,5.561,5.561,265.232,178.011,217.859
0.269,21.487,5.446,5.446,265.454,178.017,217.753
0.271,21.735,5.336,5.336,265.679,178.018,217.650
0.273,21.978,5.238,5.238,265.902,178.014,217.551
0.275,22.211,5.159,5.159,266.115,178.006,217.459
0.276,22.424,5.098,5.098,266.311,177.993,217.377
0.278,22.611,5.051,5.051,266.484,177.977,217.306
0.280,22.766,5.017,5.017,266.626,177.957,217.249
0.282,22.882,4.992,4.992,266.733,177.935,217.207
0.283,22.964,4.975,4.975,266.806,177.911,217.181
0.285,23.020,4.962,4.962,266.854,177.885,217.167
0.287,23.058,4.952,4.952,266.880,177.857,217.163
0.288,23.089,4.944,4.944,266.892,177.830,217.167
0.290,23.119,4.935,4.935,266.896,177.802,217.177
0.292,23.150,4.924,4.924,266.898,177.774,217.190
0.294,23.180,4.909,4.910,266.903,177.747,217.204
0.295,23.212,4.889,4.890,266.918,177.722,217.217
0.297,23.252,4.864,4.865,266.949,177.699,217.227
0.299,23.309,4.832,4.834,267.003,177.679,217.231
0.301,23.393,4.794,4.796,267.084,177.662,217.227
0.302,23.506,4.750,4.750,267.196,177.647,217.214
0.304,23.647,4.698,4.696,267.335,177.634,217.194
0.306,23.812,4.639,4.635,267.497,177.619,217.170
0.307,23.996,4.574,4.568,267.679,177.601,217.144
0.309,24.195,4.506,4.499,267.875,177.579,217.117
0.311,24.406,4.434,4.428,268.081,177.549,217.091
0.313,24.624,4.360,4.358,268.295,177.510,217.070
0.314,24.846,4.286,4.292,268.511,177.460,217.055
0.316,25.070,4.212,4.229,268.726,177.396,217.048
0.318,25.294,4.141,4.170,268.935,177.318,217.052
0.320,25.515,4.073,4.114,269.135,177.222,217.068
0.321,25.736,4.010,4.062,269.321,177.108,217.099
0.323,25.957,3.953,4.012,269.493,176.977,217.144
0.325,26.179,3.903,3.965,269.651,176.832,217.200
0.326,26.402,3.862,3.921,269.797,176.676,217.266
0.328,26.625,3.829,3.883,269.932,176.515,217.339
0.330,26.846,3.805,3.852,270.056,176.350,217.418
0.332,27.062,3.791,3.829,270.170,176.186,217.500
0.333,27.271,3.785,3.815,270.276,176.025,217.583
0.335,27.470,3.789,3.811,270.373,175.872,217.666
0.337,27.656,3.800,3.816,270.463,175.731,217.745
0.339,27.826,3.816,3.825,270.547,175.603,217.819
0.340,27.976,3.832,3.837,270.626,175.494,217.886
0.342,28.106,3.846,3.848,270.701,175.405,217.944
0.344,28.217,3.856,3.856,270.770,175.335,217.994
0.345,28.311,3.860,3.858,270.835,175.281,218.036
0.347,28.392,3.858,3.856,270.896,175.241,218.071
0.349,28.461,3.853,3.851,270.951,175.212,218.100
0.351,28.519,3.846,3.845,271.002,175.193,218.123
0.352,28.570,3.840,3.839,271.047,175.181,218.142
0.354,28.613,3.834,3.834,271.088,175.175,218.155
0.356,28.650,3.831,3.833,271.124,175.171,218.165
0.358,28.682,3.831,3.833,271.154,175.167,218.172
0.359,28.708,3.834,3.836,271.179,175.161,218.176
0.361,28.730,3.839,3.842,271.199,175.152,218.179
0.363,28.751,3.847,3.849,271.215,175.137,218.180
0.364,28.774,3.859,3.858,271.228,175.119,218.181
0.366,28.800,3.872,3.868,271.241,175.097,218.183
0.368,28.829,3.886,3.878,271.257,175.072,218.185
0.370,28.862,3.897,3.888,271.275,175.046,218.190
0.371,28.900,3.904,3.896,271.300,175.018,218.197
0.373,28.944,3.905,3.902,271.333,174.990,218.208
0.375,28.997,3.898,3.905,271.375,174.961,218.223
0.377,29.061,3.883,3.903,271.429,174.933,218.242
0.378,29.138,3.862,3.898,271.497,174.907,218.268
0.380,29.231,3.837,3.889,271.580,174.883,218.299
0.382,29.341,3.811,3.876,271.681,174.861,218.338
0.383,29.466,3.786,3.859,271.797,174.842,218.382
0.385,29.605,3.764,3.838,271.926,174.824,218.431
0.387,29.754,3.746,3.814,272.065,174.808,218.483
0.389,29.911,3.732,3.792,272.211,174.792,218.537
0.390,30.073,3.721,3.772,272.363,174.777,218.592
0.392,30.237,3.716,3.759,272.517,174.761,218.645
0.394,30.400,3.715,3.754,272.671,174.745,218.697
0.396,30.560,3.719,3.761,272.822,174.727,218.745
0.397,30.714,3.727,3.777,272.968,174.707,218.788
0.399,30.858,3.737,3.800,273.106,174.684,218.825
0.401,30.992,3.749,3.829,273.234,174.659,218.855
0.402,31.113,3.762,3.862,273.350,174.631,218.877
0.404,31.223,3.773,3.895,273.454,174.601,218.891
0.406,31.321,3.782,3.928,273.547,174.570,218.899
0.408,31.407,3.789,3.958,273.627,174.539,218.902
0.409,31.483,3.795,3.985,273.696,174.508,218.900
0.411,31.547,3.799,4.005,273.754,174.479,218.893
0.413,31.601,3.802,4.018,273.800,174.453,218.884
0.415,31.644,3.805,4.022,273.834,174.430,218.871
0.416,31.677,3.807,4.016,273.857,174.411,218.857
0.418,31.700,3.808,4.004,273.868,174.398,218.842
0.420,31.716,3.809,3.989,273.869,174.391,218.827
0.421,31.735,3.809,3.973,273.858,174.391,218.813
0.423,31.758,3.809,3.959,273.840,174.396,218.799
0.425,31.785,3.809,3.951,273.817,174.405,218.788
0.427,31.811,3.808,3.950,273.795,174.416,218.779
0.428,31.833,3.807,3.954,273.778,174.428,218.773
0.430,31.846,3.806,3.961,273.769,174.437,218.770
0.432,31.852,3.807,3.970,273.772,174.442,218.773
0.434,31.874,3.809,3.977,273.792,174.442,218.780
0.435,31.918,3.814,3.982,273.833,174.434,218.792
0.437,31.988,3.821,3.985,273.899,174.416,218.811
0.439,32.091,3.833,3.988,273.994,174.388,218.837
0.440,32.229,3.851,3.995,274.122,174.345,218.871
0.442,32.405,3.876,4.008,274.284,174.289,218.912
0.444,32.613,3.910,4.031,274.474,174.221,218.959
0.446,32.847,3.954,4.065,274.689,174.143,219.011
0.447,33.100,4.007,4.111,274.920,174.058,219.066
0.449,33.366,4.067,4.167,275.164,173.967,219.124
0.451,33.639,4.133,4.233,275.413,173.873,219.182
0.453,33.913,4.202,4.307,275.663,173.778,219.240
0.454,34.180,4.273,4.387,275.907,173.684,219.296
0.456,34.435,4.343,4.472,276.140,173.594,219.348
0.458,34.672,4.411,4.559,276.356,173.509,219.396
0.459,34.883,4.476,4.644,276.549,173.433,219.437
0.461,35.065,4.535,4.725,276.714,173.366,219.471
0.463,35.214,4.588,4.796,276.850,173.310,219.497
0.465,35.334,4.633,4.855,276.959,173.264,219.517
0.466,35.427,4.668,4.899,277.043,173.226,219.532
0.468,35.496,4.695,4.929,277.104,173.197,219.542
0.470,35.543,4.714,4.947,277.144,173.175,219.549
0.472,35.570,4.727,4.955,277.166,173.159,219.554
0.473,35.581,4.734,4.955,277.172,173.150,219.558
0.475,35.592,4.736,4.948,277.162,173.146,219.561
0.477,35.614,4.735,4.937,277.141,173.146,219.565
0.478,35.646,4.731,4.922,277.109,173.150,219.571
0.480,35.687,4.723,4.905,277.069,173.157,219.580
0.482,35.736,4.712,4.887,277.024,173.166,219.592
0.484,35.787,4.697,4.869,276.976,173.177,219.607
0.485,35.837,4.680,4.851,276.930,173.188,219.623
0.487,35.882,4.659,4.836,276.889,173.199,219.640
0.489,35.919,4.639,4.826,276.858,173.209,219.656
0.491,35.944,4.620,4.824,276.839,173.217,219.671
0.492,35.957,4.607,4.833,276.837,173.222,219.682
0.494,35.977,4.601,4.856,276.856,173.224,219.690
0.496,36.020,4.604,4.895,276.899,173.222,219.693
0.497,36.092,4.618,4.951,276.970,173.214,219.690
0.499,36.196,4.641,5.019,277.073,173.201,219.680
0.501,36.337,4.671,5.096,277.212,173.180,219.662
0.503,36.514,4.707,5.178,277.384,173.154,219.636
0.504,36.719,4.746,5.261,277.585,173.122,219.604
0.506,36.947,4.788,5.340,277.806,173.086,219.568
0.508,37.189,4.831,5.412,278.043,173.048,219.531
0.509,37.440,4.875,5.472,278.288,173.008,219.493
0.511,37.693,4.919,5.516,278.535,172.968,219.456
0.513,37.940,4.962,5.540,278.777,172.930,219.423
0.515,38.176,5.006,5.540,279.008,172.895,219.396
0.516,38.392,5.048,5.512,279.222,172.863,219.376
0.518,38.584,5.088,5.462,279.411,172.837,219.365
0.520,38.744,5.125,5.398,279.570,172.817,219.365
0.522,38.869,5.159,5.330,279.693,172.806,219.378
0.523,38.961,5.189,5.268,279.783,172.801,219.401
0.525,39.029,5.214,5.220,279.842,172.803,219.435
0.527,39.082,5.232,5.196,279.875,172.810,219.475
0.528,39.131,5.245,5.192,279.885,172.821,219.522
0.530,39.184,5.252,5.203,279.877,172.837,219.572
0.532,39.243,5.253,5.222,279.854,172.855,219.623
0.534,39.308,5.249,5.243,279.820,172.875,219.675
0.535,39.375,5.239,5.261,279.779,172.895,219.724
0.537,39.442,5.225,5.270,279.735,172.916,219.770
0.539,39.504,5.208,5.272,279.691,172.937,219.809
0.541,39.558,5.190,5.269,279.652,172.955,219.841
0.542,39.601,5.174,5.262,279.620,172.971,219.864
0.544,39.633,5.162,5.253,279.595,172.984,219.880
0.546,39.656,5.155,5.245,279.578,172.995,219.891
0.547,39.669,5.156,5.239,279.569,173.001,219.898
0.549,39.674,5.161,5.235,279.569,173.005,219.902
0.551,39.684,5.170,5.233,279.578,173.004,219.906
0.553,39.703,5.180,5.233,279.596,172.999,219.910
0.554,39.733,5.189,5.235,279.623,172.989,219.916
0.556,39.774,5.195,5.239,279.661,172.975,219.926
0.558,39.828,5.198,5.245,279.708,172.955,219.941
0.560,39.895,5.198,5.253,279.767,172.929,219.964
0.561,39.977,5.197,5.263,279.836,172.898,219.994
0.563,40.072,5.195,5.274,279.914,172.862,220.032
0.565,40.176,5.195,5.287,280.000,172.823,220.077
0.566,40.286,5.197,5.301,280.089,172.782,220.128
0.568,40.400,5.201,5.315,280.180,172.741,220.183
0.570,40.515,5.207,5.328,280.270,172.701,220.243
0.572,40.628,5.213,5.338,280.356,172.663,220.305
0.573,40.736,5.219,5.342,280.437,172.630,220.368
0.575,40.836,5.222,5.340,280.509,172.602,220.432
0.577,40.927,5.224,5.329,280.570,172.582,220.496
0.579,41.006,5.222,5.310,280.618,172.571,220.557
0.580,41.073,5.217,5.284,280.650,172.569,220.617
0.582,41.131,5.209,5.254,280.665,172.578,220.672
0.584,41.186,5.199,5.222,280.669,172.596,220.724
0.585,41.239,5.185,5.189,280.667,172.620,220.772
0.587,41.290,5.169,5.157,280.665,172.646,220.815
0.589,41.337,5.149,5.127,280.669,172.674,220.853
0.591,41.381,5.126,5.099,280.684,172.699,220.885
0.592,41.428,5.101,5.075,280.716,172.721,220.912
0.594,41.488,5.071,5.054,280.770,172.735,220.933
0.596,41.573,5.039,5.038,280.853,172.739,220.948
0.598,41.690,5.004,5.027,280.971,172.732,220.955
0.599,41.849,4.968,5.020,281.128,172.710,220.956
0.601,42.055,4.934,5.019,281.330,172.670,220.949
0.603,42.306,4.906,5.023,281.574,172.615,220.936
0.604,42.594,4.886,5.031,281.853,172.546,220.917
0.606,42.911,4.878,5.045,282.159,172.467,220.894
0.608,43.248,4.883,5.063,282.484,172.381,220.868
0.610,43.596,4.897,5.081,282.819,172.292,220.840
0.611,43.946,4.916,5.097,283.156,172.201,220.812
0.613,44.289,4.935,5.106,283.487,172.113,220.785
0.615,44.618,4.949,5.104,283.804,172.031,220.760
0.617,44.923,4.955,5.089,284.100,171.958,220.739
0.618,45.196,4.949,5.058,284.365,171.896,220.723
0.620,45.428,4.936,5.019,284.592,171.850,220.712
0.622,45.613,4.918,4.975,284.774,171.820,220.709
0.623,45.755,4.901,4.933,284.916,171.807,220.710
0.625,45.862,4.888,4.898,285.023,171.806,220.715
0.627,45.940,4.883,4.877,285.100,171.815,220.721
0.629,45.996,4.886,4.871,285.153,171.832,220.726
0.630,46.036,4.897,4.878,285.187,171.853,220.727
0.632,46.069,4.913,4.895,285.208,171.878,220.723
0.634,46.098,4.931,4.918,285.221,171.901,220.711
0.636,46.130,4.949,4.944,285.232,171.922,220.690
0.637,46.169,4.965,4.972,285.245,171.938,220.657
0.639,46.221,4.979,4.999,285.267,171.945,220.610
0.641,46.294,4.992,5.025,285.304,171.941,220.547
0.642,46.390,5.007,5.051,285.356,171.927,220.468
0.644,46.505,5.024,5.078,285.424,171.903,220.378
0.646,46.636,5.046,5.105,285.506,171.873,220.280
0.648,46.780,5.073,5.132,285.602,171.838,220.178
0.649,46.933,5.105,5.159,285.710,171.802,220.077
0.651,47.091,5.139,5.184,285.828,171.766,219.979
0.653,47.251,5.171,5.206,285.957,171.732,219.889
0.655,47.411,5.199,5.223,286.094,171.704,219.811
0.656,47.570,5.220,5.234,286.239,171.683,219.748
0.658,47.728,5.230,5.237,286.390,171.672,219.705
0.660,47.886,5.232,5.234,286.546,171.673,219.686
0.661,48.047,5.227,5.226,286.707,171.687,219.693
0.663,48.216,5.217,5.216,286.871,171.715,219.725
0.665,48.393,5.206,5.205,287.036,171.753,219.778
0.667,48.579,5.195,5.195,287.201,171.799,219.848
0.668,48.770,5.186,5.187,287.365,171.851,219.932
0.670,48.966,5.178,5.182,287.527,171.906,220.026
0.672,49.162,5.172,5.179,287.685,171.963,220.127
0.674,49.355,5.165,5.178,287.838,172.019,220.231
0.675,49.541,5.157,5.178,287.984,172.072,220.334
0.677,49.718,5.148,5.179,288.123,172.119,220.432
0.679,49.880,5.136,5.179,288.252,172.159,220.523
0.680,50.026,5.123,5.180,288.371,172.189,220.602
0.682,50.154,5.110,5.180,288.479,172.207,220.667
0.684,50.268,5.099,5.178,288.579,172.215,220.722
0.686,50.372,5.091,5.175,288.672,172.214,220.768
0.687,50.470,5.089,5.169,288.761,172.205,220.807
0.689,50.565,5.091,5.162,288.848,172.190,220.843
0.691,50.661,5.096,5.152,288.936,172.168,220.877
0.693,50.761,5.102,5.140,289.025,172.142,220.912
0.694,50.866,5.107,5.128,289.119,172.113,220.950
0.696,50.981,5.109,5.115,289.220,172.081,220.995
0.698,51.107,5.105,5.102,289.330,172.048,221.047
0.699,51.247,5.096,5.089,289.450,172.016,221.111
0.701,51.405,5.085,5.078,289.584,171.984,221.187
0.703,51.578,5.075,5.071,289.730,171.954,221.276
