"T","Distance","Radius","FreeRadius","X","Y","Z"
0.000,0.000,2.238,2.238,-111.028,27.938,-16.512
0.001,0.220,2.321,2.321,-110.849,27.829,-16.580
0.002,0.437,2.405,2.405,-110.672,27.722,-16.646
0.004,0.652,2.488,2.488,-110.496,27.618,-16.710
0.005,0.860,2.571,2.571,-110.322,27.518,-16.770
0.006,1.062,2.653,2.653,-110.153,27.424,-16.826
0.007,1.255,2.735,2.735,-109.987,27.338,-16.876
0.009,1.438,2.816,2.816,-109.828,27.260,-16.919
0.010,1.610,2.896,2.896,-109.674,27.192,-16.953
0.011,1.769,2.975,2.975,-109.527,27.137,-16.979
0.012,1.914,3.053,3.053,-109.389,27.094,-16.993
0.014,2.047,3.129,3.129,-109.259,27.066,-16.997
0.015,2.168,3.203,3.203,-109.139,27.054,-16.987
0.016,2.280,3.274,3.274,-109.029,27.058,-16.965
0.017,2.387,3.342,3.342,-108.929,27.076,-16.932
0.019,2.490,3.407,3.407,-108.839,27.104,-16.890
0.020,2.592,3.469,3.469,-108.757,27.142,-16.842
0.021,2.693,3.526,3.526,-108.684,27.187,-16.790
0.022,2.790,3.578,3.578,-108.620,27.235,-16.735
0.023,2.884,3.626,3.626,-108.563,27.286,-16.679
0.025,2.973,3.669,3.669,-108.514,27.336,-16.625
0.026,3.053,3.707,3.707,-108.472,27.383,-16.575
0.027,3.124,3.740,3.740,-108.437,27.425,-16.530
0.028,3.182,3.768,3.768,-108.409,27.460,-16.494
0.030,3.226,3.790,3.790,-108.386,27.485,-16.466
0.031,3.256,3.806,3.806,-108.369,27.501,-16.448
0.032,3.276,3.817,3.817,-108.355,27.511,-16.437
0.033,3.288,3.824,3.824,-108.344,27.515,-16.433
0.035,3.297,3.827,3.827,-108.335,27.516,-16.435
0.036,3.308,3.827,3.827,-108.326,27.514,-16.442
0.037,3.322,3.826,3.826,-108.317,27.513,-16.452
0.038,3.339,3.824,3.824,-108.305,27.512,-16.464
0.040,3.359,3.823,3.823,-108.291,27.515,-16.478
0.041,3.384,3.822,3.822,-108.272,27.523,-16.492
0.042,3.415,3.823,3.823,-108.248,27.537,-16.505
0.043,3.455,3.827,3.827,-108.217,27.560,-16.515
0.044,3.505,3.832,3.832,-108.179,27.591,-16.524
0.046,3.565,3.839,3.839,-108.134,27.631,-16.530
0.047,3.634,3.849,3.849,-108.083,27.678,-16.536
0.048,3.712,3.861,3.861,-108.026,27.731,-16.542
0.049,3.798,3.875,3.875,-107.964,27.790,-16.548
0.051,3.890,3.892,3.892,-107.897,27.852,-16.557
0.052,3.988,3.911,3.911,-107.826,27.919,-16.569
0.053,4.091,3.933,3.933,-107.751,27.987,-16.584
0.054,4.198,3.957,3.957,-107.673,28.058,-16.604
0.056,4.309,3.984,3.984,-107.592,28.128,-16.630
0.057,4.422,4.013,4.013,-107.508,28.199,-16.662
0.058,4.539,4.043,4.043,-107.423,28.268,-16.702
0.059,4.658,4.076,4.076,-107.337,28.335,-16.748
0.060,4.779,4.111,4.111,-107.249,28.401,-16.799
0.062,4.901,4.147,4.147,-107.161,28.465,-16.855
0.063,5.025,4.186,4.186,-107.072,28.528,-16.914
0.064,5.149,4.225,4.225,-106.983,28.589,-16.974
0.065,5.272,4.265,4.265,-106.893,28.648,-17.034
0.067,5.394,4.306,4.306,-106.804,28.707,-17.093
0.068,5.513,4.347,4.347,-106.716,28.763,-17.150
0.069,5.629,4.388,4.388,-106.628,28.819,-17.203
0.070,5.742,4.429,4.429,-106.542,28.873,-17.250
0.072,5.850,4.469,4.469,-106.456,28.925,-17.291
0.073,5.954,4.508,4.508,-106.373,28.976,-17.325
0.074,6.052,4.545,4.545,-106.292,29.026,-17.353
0.075,6.147,4.581,4.581,-106.214,29.073,-17.374
0.077,6.236,4.615,4.615,-106.138,29.119,-17.389
0.078,6.320,4.647,4.647,-106.067,29.162,-17.401
0.079,6.399,4.676,4.676,-105.999,29.202,-17.408
0.080,6.472,4.702,4.702,-105.937,29.240,-17.412
0.081,6.539,4.725,4.725,-105.879,29.274,-17.413
0.083,6.599,4.744,4.744,-105.827,29.304,-17.413
0.084,6.652,4.761,4.761,-105.782,29.331,-17.411
0.085,6.697,4.775,4.775,-105.743,29.354,-17.410
0.086,6.734,4.787,4.787,-105.711,29.373,-17.408
0.088,6.763,4.796,4.796,-105.686,29.387,-17.408
0.089,6.786,4.804,4.804,-105.666,29.398,-17.408
0.090,6.802,4.811,4.811,-105.652,29.406,-17.409
0.091,6.815,4.817,4.817,-105.641,29.412,-17.412
0.093,6.824,4.822,4.822,-105.633,29.415,-17.416
0.094,6.833,4.827,4.827,-105.627,29.418,-17.423
0.095,6.843,4.832,4.832,-105.622,29.419,-17.431
0.096,6.854,4.838,4.838,-105.617,29.420,-17.441
0.098,6.868,4.844,4.844,-105.610,29.422,-17.453
0.099,6.886,4.852,4.852,-105.601,29.424,-17.468
0.100,6.907,4.861,4.861,-105.590,29.428,-17.485
0.101,6.933,4.872,4.872,-105.574,29.433,-17.506
0.102,6.964,4.885,4.885,-105.555,29.440,-17.528
0.104,6.997,4.899,4.899,-105.533,29.448,-17.553
0.105,7.033,4.914,4.914,-105.510,29.457,-17.578
0.106,7.070,4.929,4.929,-105.485,29.466,-17.603
0.107,7.107,4.943,4.943,-105.459,29.476,-17.629
0.109,7.143,4.956,4.956,-105.434,29.484,-17.653
0.110,7.177,4.967,4.967,-105.410,29.492,-17.676
0.111,7.208,4.974,4.974,-105.387,29.498,-17.697
0.112,7.236,4.979,4.979,-105.367,29.503,-17.715
0.114,7.258,4.980,4.980,-105.350,29.506,-17.729
0.115,7.275,4.980,4.980,-105.337,29.506,-17.740
0.116,7.287,4.978,4.978,-105.328,29.504,-17.746
0.117,7.294,4.975,4.975,-105.322,29.500,-17.749
0.119,7.300,4.973,4.973,-105.318,29.496,-17.749
0.120,7.307,4.971,4.971,-105.315,29.491,-17.746
0.121,7.314,4.971,4.971,-105.313,29.487,-17.741
0.122,7.322,4.974,4.974,-105.311,29.483,-17.734
0.123,7.331,4.978,4.978,-105.307,29.482,-17.726
0.125,7.341,4.984,4.984,-105.301,29.484,-17.717
0.126,7.355,4.992,4.992,-105.292,29.488,-17.708
0.127,7.373,4.999,4.999,-105.279,29.497,-17.700
0.128,7.396,5.007,5.007,-105.261,29.511,-17.693
0.130,7.427,5.014,5.014,-105.238,29.530,-17.686
0.131,7.463,5.021,5.021,-105.211,29.553,-17.681
0.132,7.502,5.025,5.025,-105.181,29.578,-17.677
0.133,7.543,5.028,5.028,-105.149,29.603,-17.673
0.135,7.581,5.027,5.027,-105.118,29.626,-17.668
0.136,7.616,5.023,5.023,-105.089,29.645,-17.663
0.137,7.645,5.015,5.015,-105.064,29.658,-17.657
0.138,7.668,5.002,5.002,-105.044,29.663,-17.650
0.140,7.685,4.983,4.983,-105.030,29.658,-17.641
0.141,7.706,4.958,4.958,-105.025,29.641,-17.630
0.142,7.740,4.925,4.925,-105.030,29.610,-17.616
0.143,7.793,4.886,4.886,-105.046,29.563,-17.599
0.144,7.863,4.843,4.843,-105.073,29.501,-17.579
0.146,7.945,4.797,4.797,-105.108,29.430,-17.558
0.147,8.029,4.751,4.751,-105.145,29.358,-17.537
0.148,8.108,4.707,4.707,-105.182,29.290,-17.519
0.149,8.174,4.666,4.666,-105.214,29.234,-17.504
0.151,8.219,4.631,4.631,-105.237,29.197,-17.495
0.152,8.234,4.604,4.604,-105.246,29.185,-17.493
0.153,8.257,4.586,4.586,-105.238,29.205,-17.499
0.154,8.325,4.575,4.575,-105.208,29.264,-17.517
0.156,8.447,4.571,4.571,-105.153,29.368,-17.546
0.157,8.630,4.573,4.573,-105.068,29.525,-17.589
0.158,8.883,4.579,4.579,-104.949,29.740,-17.647
0.159,9.199,4.589,4.589,-104.800,30.009,-17.720
0.160,9.567,4.601,4.601,-104.625,30.322,-17.803
0.162,9.974,4.614,4.614,-104.430,30.668,-17.896
0.163,10.410,4.627,4.627,-104.222,31.037,-17.994
0.164,10.862,4.639,4.639,-104.004,31.420,-18.096
0.165,11.317,4.650,4.650,-103.784,31.805,-18.198
0.167,11.765,4.658,4.658,-103.566,32.183,-18.298
0.168,12.192,4.662,4.662,-103.357,32.544,-18.394
0.169,12.588,4.661,4.661,-103.162,32.877,-18.482
0.170,12.940,4.655,4.655,-102.986,33.171,-18.560
0.172,13.236,4.642,4.642,-102.836,33.418,-18.625
0.173,13.470,4.622,4.622,-102.713,33.611,-18.675
0.174,13.647,4.597,4.597,-102.615,33.753,-18.712
0.175,13.777,4.570,4.570,-102.534,33.852,-18.737
0.177,13.870,4.545,4.545,-102.464,33.913,-18.750
0.178,13.940,4.524,4.524,-102.401,33.942,-18.753
0.179,14.003,4.509,4.509,-102.339,33.945,-18.748
0.180,14.074,4.506,4.506,-102.271,33.929,-18.736
0.181,14.161,4.515,4.515,-102.191,33.900,-18.717
0.183,14.267,4.541,4.541,-102.095,33.862,-18.693
0.184,14.395,4.582,4.582,-101.976,33.824,-18.666
0.185,14.549,4.637,4.637,-101.828,33.789,-18.637
0.186,14.735,4.704,4.704,-101.647,33.766,-18.606
0.188,14.952,4.781,4.781,-101.432,33.754,-18.575
0.189,15.195,4.865,4.865,-101.191,33.754,-18.544
0.190,15.460,4.956,4.956,-100.928,33.762,-18.514
0.191,15.740,5.050,5.050,-100.650,33.779,-18.485
0.193,16.028,5.147,5.147,-100.364,33.801,-18.458
0.194,16.320,5.243,5.243,-100.075,33.828,-18.434
0.195,16.608,5.339,5.339,-99.789,33.857,-18.412
0.196,16.886,5.432,5.432,-99.513,33.888,-18.393
0.198,17.148,5.521,5.521,-99.253,33.919,-18.378
0.199,17.389,5.604,5.604,-99.015,33.948,-18.367
0.200,17.600,5.680,5.680,-98.805,33.974,-18.362
0.201,17.779,5.747,5.747,-98.627,33.994,-18.361
0.202,17.927,5.805,5.805,-98.480,34.011,-18.365
0.204,18.048,5.851,5.851,-98.360,34.023,-18.373
0.205,18.144,5.889,5.889,-98.265,34.032,-18.384
0.206,18.221,5.919,5.919,-98.190,34.038,-18.398
0.207,18.281,5.943,5.943,-98.132,34.041,-18.413
0.209,18.328,5.962,5.962,-98.088,34.042,-18.430
0.210,18.367,5.978,5.978,-98.054,34.041,-18.448
0.211,18.399,5.992,5.992,-98.027,34.039,-18.466
0.212,18.428,6.006,6.006,-98.003,34.037,-18.483
0.214,18.457,6.020,6.020,-97.980,34.034,-18.499
0.215,18.487,6.036,6.036,-97.953,34.032,-18.513
0.216,18.521,6.051,6.051,-97.922,34.030,-18.525
0.217,18.557,6.067,6.067,-97.886,34.028,-18.535
0.219,18.596,6.083,6.083,-97.848,34.027,-18.543
0.220,18.636,6.098,6.098,-97.809,34.026,-18.550
0.221,18.677,6.112,6.112,-97.768,34.024,-18.555
0.222,18.717,6.126,6.126,-97.728,34.023,-18.559
0.223,18.756,6.139,6.139,-97.690,34.022,-18.563
0.225,18.793,6.150,6.150,-97.653,34.021,-18.566
0.226,18.826,6.160,6.160,-97.620,34.019,-18.569
0.227,18.854,6.169,6.169,-97.592,34.017,-18.572
0.228,18.878,6.176,6.176,-97.569,34.014,-18.576
0.230,18.895,6.182,6.182,-97.553,34.011,-18.580
0.231,18.907,6.187,6.187,-97.542,34.007,-18.584
0.232,18.916,6.190,6.190,-97.535,34.003,-18.588
0.233,18.923,6.192,6.192,-97.532,33.998,-18.592
0.235,18.929,6.192,6.193,-97.530,33.994,-18.596
0.236,18.935,6.192,6.192,-97.529,33.989,-18.599
0.237,18.940,6.192,6.192,-97.527,33.985,-18.601
0.238,18.945,6.191,6.191,-97.523,33.981,-18.602
0.240,18.953,6.191,6.191,-97.517,33.978,-18.602
0.241,18.965,6.191,6.192,-97.505,33.976,-18.600
0.242,18.982,6.193,6.193,-97.488,33.974,-18.596
0.243,19.007,6.196,6.196,-97.464,33.973,-18.590
0.244,19.039,6.201,6.200,-97.433,33.974,-18.582
0.246,19.078,6.206,6.206,-97.396,33.975,-18.572
0.247,19.122,6.213,6.212,-97.353,33.976,-18.560
0.248,19.170,6.220,6.219,-97.306,33.978,-18.548
0.249,19.222,6.227,6.226,-97.257,33.980,-18.534
0.251,19.274,6.234,6.233,-97.206,33.981,-18.521
0.252,19.328,6.240,6.240,-97.155,33.982,-18.507
0.253,19.380,6.245,6.246,-97.104,33.982,-18.493
0.254,19.430,6.250,6.251,-97.055,33.981,-18.480
0.256,19.478,6.254,6.255,-97.010,33.978,-18.469
0.257,19.520,6.257,6.259,-96.968,33.974,-18.459
0.258,19.558,6.260,6.263,-96.932,33.968,-18.450
0.259,19.591,6.263,6.266,-96.901,33.960,-18.443
0.260,19.620,6.266,6.268,-96.874,33.950,-18.438
0.262,19.648,6.269,6.270,-96.848,33.939,-18.434
0.263,19.676,6.273,6.272,-96.824,33.926,-18.432
0.264,19.704,6.277,6.274,-96.799,33.913,-18.431
0.265,19.735,6.282,6.276,-96.772,33.898,-18.430
0.267,19.768,6.288,6.279,-96.743,33.883,-18.430
0.268,19.806,6.295,6.284,-96.709,33.867,-18.431
0.269,19.849,6.303,6.291,-96.669,33.851,-18.431
0.270,19.898,6.311,6.301,-96.622,33.835,-18.432
0.272,19.956,6.321,6.315,-96.567,33.819,-18.433
0.273,20.022,6.331,6.332,-96.503,33.803,-18.434
0.274,20.095,6.343,6.354,-96.431,33.788,-18.434
0.275,20.173,6.355,6.378,-96.354,33.773,-18.434
0.277,20.255,6.368,6.404,-96.274,33.759,-18.434
0.278,20.338,6.380,6.431,-96.192,33.745,-18.434
0.279,20.421,6.392,6.457,-96.110,33.732,-18.434
0.280,20.502,6.403,6.480,-96.030,33.721,-18.434
0.281,20.578,6.413,6.499,-95.954,33.710,-18.434
0.283,20.649,6.421,6.514,-95.884,33.700,-18.433
0.284,20.712,6.426,6.523,-95.822,33.692,-18.433
0.285,20.765,6.430,6.526,-95.769,33.685,-18.433
0.286,20.807,6.433,6.525,-95.728,33.680,-18.432
0.288,20.837,6.434,6.521,-95.698,33.676,-18.432
0.289,20.858,6.433,6.515,-95.677,33.673,-18.431
0.290,20.872,6.432,6.508,-95.663,33.671,-18.430
0.291,20.881,6.430,6.502,-95.655,33.670,-18.428
0.293,20.887,6.428,6.498,-95.650,33.669,-18.425
0.294,20.892,6.426,6.497,-95.646,33.668,-18.421
0.295,20.900,6.423,6.498,-95.641,33.667,-18.415
0.296,20.910,6.420,6.501,-95.634,33.666,-18.408
0.298,20.925,6.417,6.504,-95.623,33.665,-18.399
0.299,20.946,6.414,6.507,-95.605,33.662,-18.387
0.300,20.976,6.410,6.508,-95.578,33.659,-18.373
0.301,21.017,6.405,6.507,-95.542,33.654,-18.357
0.302,21.066,6.400,6.502,-95.497,33.648,-18.339
0.304,21.121,6.394,6.493,-95.445,33.641,-18.319
0.305,21.181,6.388,6.480,-95.390,33.634,-18.299
0.306,21.243,6.382,6.463,-95.331,33.626,-18.278
0.307,21.306,6.376,6.446,-95.273,33.617,-18.259
0.309,21.366,6.372,6.428,-95.216,33.608,-18.241
0.310,21.423,6.369,6.412,-95.162,33.599,-18.224
0.311,21.473,6.368,6.398,-95.115,33.590,-18.211
0.312,21.515,6.370,6.389,-95.075,33.581,-18.200
0.314,21.547,6.375,6.386,-95.045,33.572,-18.194
0.315,21.568,6.384,6.388,-95.026,33.564,-18.192
0.316,21.578,6.393,6.394,-95.019,33.557,-18.195
0.317,21.587,6.403,6.402,-95.020,33.550,-18.200
0.319,21.598,6.412,6.410,-95.026,33.545,-18.208
0.320,21.610,6.418,6.416,-95.034,33.541,-18.216
0.321,21.619,6.419,6.419,-95.040,33.540,-18.223
0.322,21.625,6.415,6.416,-95.042,33.540,-18.228
0.323,21.632,6.403,6.405,-95.036,33.543,-18.229
0.325,21.651,6.383,6.385,-95.018,33.549,-18.226
0.326,21.685,6.357,6.358,-94.986,33.558,-18.216
0.327,21.739,6.324,6.325,-94.936,33.570,-18.199
0.328,21.816,6.287,6.287,-94.865,33.586,-18.174
0.330,21.919,6.246,6.246,-94.770,33.606,-18.138
0.331,22.046,6.204,6.202,-94.654,33.629,-18.094
0.332,22.194,6.160,6.159,-94.519,33.657,-18.043
0.333,22.358,6.116,6.116,-94.368,33.688,-17.986
0.335,22.535,6.074,6.076,-94.204,33.723,-17.927
0.336,22.723,6.033,6.037,-94.031,33.761,-17.866
0.337,22.916,5.992,6.000,-93.851,33.802,-17.806
0.338,23.113,5.953,5.965,-93.669,33.846,-17.747
0.340,23.309,5.915,5.930,-93.487,33.894,-17.693
0.341,23.501,5.877,5.895,-93.307,33.944,-17.645
0.342,23.686,5.840,5.860,-93.135,33.997,-17.605
0.343,23.862,5.804,5.825,-92.971,34.053,-17.574
0.344,24.026,5.767,5.789,-92.819,34.111,-17.554
0.346,24.179,5.731,5.752,-92.679,34.170,-17.542
0.347,24.322,5.696,5.715,-92.549,34.231,-17.539
0.348,24.456,5.661,5.677,-92.430,34.291,-17.543
0.349,24.581,5.627,5.640,-92.320,34.351,-17.551
0.351,24.697,5.593,5.603,-92.220,34.409,-17.564
0.352,24.804,5.561,5.566,-92.130,34.464,-17.579
0.353,24.903,5.529,5.531,-92.048,34.517,-17.596
0.354,24.992,5.499,5.496,-91.975,34.566,-17.613
0.356,25.073,5.469,5.463,-91.910,34.610,-17.629
0.357,25.143,5.442,5.432,-91.852,34.649,-17.643
0.358,25.204,5.415,5.403,-91.802,34.681,-17.652
0.359,25.257,5.391,5.378,-91.757,34.709,-17.659
0.360,25.303,5.368,5.356,-91.718,34.733,-17.664
0.362,25.346,5.348,5.339,-91.682,34.755,-17.669
0.363,25.387,5.330,5.326,-91.648,34.777,-17.676
0.364,25.429,5.314,5.318,-91.615,34.801,-17.685
0.365,25.475,5.301,5.315,-91.581,34.828,-17.699
0.367,25.526,5.288,5.315,-91.545,34.860,-17.719
0.368,25.588,5.275,5.315,-91.506,34.899,-17.745
0.369,25.661,5.261,5.315,-91.462,34.946,-17.781
0.370,25.750,5.243,5.311,-91.413,35.004,-17.827
0.372,25.857,5.223,5.303,-91.356,35.073,-17.885
0.373,25.983,5.197,5.288,-91.291,35.155,-17.956
0.374,26.126,5.165,5.264,-91.219,35.248,-18.037
0.375,26.284,5.128,5.231,-91.141,35.351,-18.128
0.377,26.454,5.085,5.191,-91.059,35.463,-18.227
0.378,26.633,5.039,5.146,-90.974,35.581,-18.332
0.379,26.819,4.992,5.099,-90.887,35.704,-18.441
0.380,27.009,4.945,5.051,-90.799,35.830,-18.553
0.381,27.201,4.901,5.006,-90.712,35.958,-18.665
0.383,27.391,4.859,4.964,-90.627,36.086,-18.777
0.384,27.577,4.823,4.930,-90.545,36.213,-18.886
0.385,27.757,4.794,4.903,-90.468,36.337,-18.990
0.386,27.927,4.770,4.884,-90.396,36.456,-19.089
0.388,28.088,4.752,4.872,-90.330,36.570,-19.181
0.389,28.240,4.739,4.864,-90.269,36.679,-19.268
0.390,28.384,4.730,4.861,-90.211,36.783,-19.348
0.391,28.521,4.724,4.860,-90.156,36.883,-19.423
0.393,28.652,4.720,4.861,-90.102,36.979,-19.494
0.394,28.777,4.719,4.863,-90.048,37.072,-19.560
0.395,28.898,4.719,4.864,-89.994,37.160,-19.622
0.396,29.016,4.720,4.865,-89.938,37.246,-19.681
0.398,29.132,4.721,4.865,-89.879,37.329,-19.737
0.399,29.247,4.724,4.865,-89.817,37.409,-19.790
0.400,29.362,4.727,4.864,-89.749,37.487,-19.841
0.401,29.479,4.730,4.864,-89.675,37.563,-19.889
0.402,29.595,4.734,4.864,-89.598,37.637,-19.936
0.404,29.712,4.737,4.864,-89.517,37.707,-19.981
0.405,29.826,4.740,4.864,-89.435,37.774,-20.024
0.406,29.937,4.743,4.865,-89.353,37.838,-20.064
0.407,30.043,4.746,4.866,-89.273,37.897,-20.101
0.409,30.142,4.749,4.867,-89.197,37.951,-20.135
0.410,30.234,4.751,4.868,-89.126,38.000,-20.166
0.411,30.317,4.753,4.869,-89.062,38.043,-20.194
0.412,30.388,4.754,4.870,-89.005,38.081,-20.219
0.414,30.447,4.756,4.871,-88.959,38.111,-20.239
0.415,30.493,4.756,4.872,-88.924,38.135,-20.256
0.416,30.525,4.756,4.873,-88.900,38.151,-20.269
0.417,30.547,4.756,4.873,-88.883,38.163,-20.279
0.419,30.564,4.756,4.873,-88.870,38.170,-20.286
0.420,30.578,4.755,4.874,-88.857,38.174,-20.290
0.421,30.595,4.753,4.874,-88.840,38.178,-20.292
0.422,30.619,4.751,4.875,-88.817,38.181,-20.293
0.423,30.653,4.749,4.876,-88.783,38.186,-20.292
0.425,30.702,4.746,4.877,-88.735,38.194,-20.290
0.426,30.769,4.743,4.879,-88.669,38.206,-20.288
0.427,30.858,4.740,4.882,-88.582,38.223,-20.285
0.428,30.973,4.740,4.886,-88.470,38.248,-20.283
0.430,31.116,4.743,4.892,-88.331,38.280,-20.282
0.431,31.284,4.749,4.899,-88.167,38.320,-20.282
0.432,31.473,4.761,4.909,-87.983,38.366,-20.283
0.433,31.678,4.778,4.921,-87.786,38.418,-20.285
0.435,31.891,4.803,4.936,-87.580,38.473,-20.289
0.436,32.110,4.834,4.955,-87.369,38.531,-20.294
0.437,32.327,4.871,4.975,-87.160,38.591,-20.301
0.438,32.539,4.911,4.996,-86.957,38.651,-20.309
0.440,32.739,4.952,5.018,-86.766,38.710,-20.320
0.441,32.923,4.992,5.039,-86.592,38.767,-20.332
0.442,33.086,5.030,5.059,-86.439,38.821,-20.347
0.443,33.222,5.063,5.076,-86.314,38.871,-20.364
0.444,33.330,5.089,5.089,-86.217,38.915,-20.384
0.446,33.413,5.107,5.099,-86.148,38.955,-20.406
0.447,33.477,5.117,5.104,-86.101,38.992,-20.429
0.448,33.525,5.121,5.107,-86.074,39.024,-20.454
0.449,33.566,5.120,5.107,-86.064,39.054,-20.481
0.451,33.605,5.115,5.104,-86.068,39.081,-20.508
0.452,33.645,5.107,5.100,-86.082,39.107,-20.535
0.453,33.688,5.098,5.095,-86.102,39.132,-20.563
0.454,33.732,5.089,5.089,-86.126,39.156,-20.591
0.456,33.776,5.081,5.083,-86.151,39.179,-20.618
0.457,33.818,5.075,5.077,-86.173,39.203,-20.645
0.458,33.857,5.069,5.072,-86.189,39.229,-20.671
0.459,33.895,5.066,5.067,-86.197,39.255,-20.697
0.460,33.933,5.064,5.065,-86.197,39.283,-20.722
0.462,33.973,5.064,5.063,-86.189,39.312,-20.748
0.463,34.018,5.065,5.064,-86.172,39.344,-20.775
0.464,34.069,5.068,5.067,-86.146,39.377,-20.805
0.465,34.129,5.072,5.073,-86.110,39.413,-20.836
0.467,34.198,5.079,5.082,-86.064,39.451,-20.871
0.468,34.279,5.088,5.095,-86.006,39.492,-20.909
0.469,34.370,5.100,5.111,-85.938,39.535,-20.952
0.470,34.475,5.115,5.132,-85.857,39.582,-21.000
0.472,34.592,5.134,5.159,-85.765,39.632,-21.053
0.473,34.724,5.157,5.190,-85.660,39.684,-21.112
0.474,34.866,5.184,5.228,-85.544,39.739,-21.175
0.475,35.017,5.217,5.272,-85.420,39.793,-21.241
0.477,35.175,5.254,5.322,-85.287,39.846,-21.309
0.478,35.337,5.295,5.376,-85.149,39.895,-21.377
0.479,35.500,5.338,5.434,-85.007,39.940,-21.443
0.480,35.663,5.383,5.494,-84.862,39.979,-21.506
0.481,35.823,5.429,5.554,-84.717,40.011,-21.565
0.483,35.978,5.474,5.614,-84.572,40.033,-21.618
0.484,36.128,5.518,5.671,-84.430,40.044,-21.663
0.485,36.271,5.559,5.725,-84.291,40.043,-21.700
0.486,36.407,5.598,5.774,-84.159,40.029,-21.726
0.488,36.538,5.634,5.819,-84.032,40.001,-21.743
0.489,36.664,5.667,5.861,-83.912,39.963,-21.750
0.490,36.787,5.698,5.899,-83.798,39.918,-21.751
0.491,36.908,5.728,5.934,-83.689,39.866,-21.745
0.493,37.025,5.756,5.967,-83.585,39.813,-21.736
0.494,37.138,5.783,5.998,-83.486,39.759,-21.723
0.495,37.246,5.809,6.026,-83.392,39.708,-21.709
0.496,37.348,5.834,6.053,-83.302,39.661,-21.694
0.498,37.443,5.859,6.079,-83.217,39.623,-21.681
0.499,37.530,5.884,6.103,-83.135,39.594,-21.671
0.500,37.610,5.908,6.125,-83.057,39.578,-21.664
0.501,37.685,5.931,6.146,-82.982,39.577,-21.664
0.502,37.757,5.954,6.165,-82.911,39.589,-21.667
0.504,37.828,5.976,6.183,-82.844,39.611,-21.675
0.505,37.899,5.998,6.199,-82.781,39.642,-21.686
0.506,37.969,6.020,6.213,-82.723,39.679,-21.699
0.507,38.037,6.040,6.226,-82.670,39.719,-21.714
0.509,38.102,6.059,6.238,-82.623,39.760,-21.729
0.510,38.161,6.075,6.248,-82.581,39.800,-21.744
0.511,38.214,6.090,6.257,-82.545,39.836,-21.758
