"T","Distance","Radius","FreeRadius","X","Y","Z"
0.000,0.000,2.405,2.405,236.667,212.941,199.401
0.001,0.092,2.449,2.449,236.729,212.930,199.469
0.002,0.185,2.494,2.494,236.790,212.919,199.537
0.004,0.277,2.540,2.540,236.852,212.910,199.606
0.005,0.371,2.587,2.587,236.912,212.901,199.676
0.006,0.464,2.636,2.636,236.971,212.893,199.748
0.007,0.558,2.688,2.688,237.029,212.887,199.823
0.009,0.654,2.743,2.743,237.085,212.883,199.900
0.010,0.751,2.802,2.802,237.138,212.882,199.981
0.011,0.850,2.866,2.866,237.190,212.883,200.065
0.012,0.951,2.933,2.933,237.239,212.886,200.153
0.014,1.055,3.006,3.006,237.285,212.894,200.246
0.015,1.162,3.083,3.083,237.328,212.904,200.344
0.016,1.274,3.165,3.165,237.367,212.919,200.448
0.017,1.390,3.252,3.252,237.403,212.938,200.557
0.018,1.509,3.344,3.344,237.434,212.960,200.670
0.020,1.631,3.441,3.441,237.462,212.985,200.785
0.021,1.753,3.544,3.544,237.486,213.012,200.902
0.022,1.874,3.650,3.650,237.505,213.041,201.018
0.023,1.993,3.757,3.757,237.520,213.071,201.132
0.025,2.109,3.863,3.863,237.530,213.102,201.244
0.026,2.220,3.963,3.963,237.535,213.133,201.350
0.027,2.326,4.055,4.055,237.536,213.164,201.451
0.028,2.423,4.136,4.136,237.531,213.194,201.544
0.030,2.513,4.204,4.204,237.522,213.222,201.628
0.031,2.593,4.256,4.256,237.507,213.249,201.702
0.032,2.662,4.291,4.291,237.487,213.272,201.764
0.033,2.723,4.313,4.313,237.461,213.294,201.815
0.035,2.778,4.325,4.325,237.431,213.315,201.856
0.036,2.829,4.330,4.330,237.396,213.334,201.888
0.037,2.880,4.333,4.333,237.357,213.355,201.914
0.038,2.932,4.335,4.335,237.315,213.376,201.934
0.039,2.985,4.341,4.341,237.270,213.400,201.950
0.041,3.042,4.354,4.354,237.222,213.427,201.964
0.042,3.102,4.376,4.376,237.171,213.457,201.977
0.043,3.167,4.406,4.406,237.119,213.493,201.989
0.044,3.236,4.443,4.443,237.065,213.534,202.004
0.046,3.311,4.485,4.485,237.010,213.581,202.022
0.047,3.392,4.531,4.531,236.955,213.636,202.045
0.048,3.480,4.580,4.580,236.899,213.698,202.074
0.049,3.576,4.631,4.631,236.843,213.768,202.108
0.051,3.677,4.682,4.682,236.788,213.842,202.147
0.052,3.782,4.733,4.733,236.733,213.922,202.190
0.053,3.890,4.782,4.782,236.680,214.004,202.236
0.054,4.000,4.829,4.829,236.628,214.087,202.284
0.055,4.110,4.875,4.875,236.577,214.171,202.334
0.057,4.219,4.920,4.920,236.528,214.254,202.385
0.058,4.324,4.961,4.961,236.482,214.335,202.435
0.059,4.425,5.001,5.001,236.438,214.411,202.484
0.060,4.521,5.038,5.038,236.397,214.483,202.532
0.062,4.609,5.072,5.072,236.359,214.548,202.577
0.063,4.688,5.103,5.103,236.325,214.606,202.619
0.064,4.758,5.130,5.130,236.295,214.655,202.658
0.065,4.819,5.155,5.155,236.268,214.698,202.693
0.067,4.873,5.176,5.176,236.244,214.733,202.725
0.068,4.920,5.193,5.193,236.223,214.764,202.755
0.069,4.962,5.206,5.206,236.205,214.790,202.783
0.070,5.000,5.216,5.216,236.189,214.812,202.809
0.072,5.035,5.222,5.222,236.176,214.832,202.834
0.073,5.067,5.224,5.224,236.165,214.851,202.859
0.074,5.099,5.224,5.224,236.156,214.869,202.883
0.075,5.130,5.221,5.221,236.148,214.887,202.907
0.076,5.163,5.218,5.218,236.142,214.907,202.932
0.078,5.197,5.214,5.214,236.137,214.929,202.958
0.079,5.234,5.212,5.212,236.133,214.954,202.985
0.080,5.275,5.210,5.210,236.130,214.983,203.014
0.081,5.318,5.211,5.211,236.129,215.015,203.043
0.083,5.364,5.214,5.214,236.130,215.050,203.073
0.084,5.412,5.218,5.218,236.133,215.087,203.102
0.085,5.462,5.224,5.224,236.140,215.127,203.132
0.086,5.513,5.229,5.229,236.150,215.168,203.160
0.088,5.566,5.234,5.234,236.164,215.212,203.187
0.089,5.621,5.237,5.236,236.182,215.256,203.213
0.090,5.677,5.237,5.237,236.205,215.302,203.236
0.091,5.735,5.234,5.234,236.234,215.348,203.257
0.092,5.796,5.228,5.228,236.268,215.395,203.274
0.094,5.859,5.220,5.220,236.308,215.442,203.288
0.095,5.926,5.208,5.208,236.355,215.489,203.299
0.096,5.997,5.196,5.196,236.408,215.536,203.306
0.097,6.073,5.182,5.182,236.467,215.583,203.311
0.099,6.153,5.168,5.168,236.531,215.631,203.315
0.100,6.237,5.155,5.155,236.599,215.681,203.319
0.101,6.326,5.142,5.142,236.672,215.731,203.322
0.102,6.418,5.131,5.131,236.748,215.783,203.328
0.104,6.514,5.122,5.122,236.827,215.837,203.335
0.105,6.614,5.113,5.113,236.909,215.893,203.345
0.106,6.717,5.106,5.106,236.992,215.951,203.359
0.107,6.823,5.099,5.099,237.078,216.013,203.378
0.109,6.934,5.093,5.093,237.164,216.077,203.403
0.110,7.048,5.087,5.086,237.250,216.145,203.434
0.111,7.166,5.080,5.080,237.337,216.215,203.472
0.112,7.286,5.074,5.074,237.422,216.288,203.515
0.113,7.407,5.068,5.068,237.506,216.361,203.563
0.115,7.527,5.062,5.063,237.586,216.434,203.614
0.116,7.644,5.057,5.058,237.663,216.504,203.668
0.117,7.756,5.053,5.054,237.734,216.571,203.722
0.118,7.862,5.050,5.051,237.800,216.633,203.777
0.120,7.959,5.049,5.050,237.859,216.690,203.830
0.121,8.046,5.051,5.051,237.910,216.739,203.880
0.122,8.122,5.055,5.054,237.953,216.779,203.928
0.123,8.184,5.061,5.059,237.987,216.810,203.970
0.125,8.231,5.067,5.064,238.009,216.829,204.007
0.126,8.264,5.071,5.068,238.021,216.836,204.037
0.127,8.287,5.074,5.069,238.023,216.833,204.060
0.128,8.308,5.072,5.068,238.018,216.825,204.078
0.129,8.326,5.064,5.061,238.011,216.817,204.093
0.131,8.341,5.050,5.049,238.003,216.813,204.105
0.132,8.355,5.027,5.029,237.999,216.819,204.117
0.133,8.379,4.997,5.002,238.002,216.840,204.129
0.134,8.423,4.962,4.971,238.014,216.880,204.143
0.136,8.495,4.924,4.937,238.040,216.945,204.161
0.137,8.600,4.888,4.903,238.083,217.038,204.183
0.138,8.745,4.854,4.870,238.145,217.166,204.212
0.139,8.936,4.828,4.841,238.231,217.333,204.248
0.141,9.179,4.810,4.817,238.343,217.543,204.293
0.142,9.478,4.804,4.800,238.483,217.801,204.349
0.143,9.826,4.811,4.793,238.649,218.100,204.414
0.144,10.213,4.829,4.796,238.835,218.432,204.487
0.145,10.631,4.855,4.808,239.036,218.790,204.567
0.147,11.070,4.888,4.831,239.248,219.164,204.652
0.148,11.519,4.924,4.865,239.465,219.548,204.741
0.149,11.971,4.961,4.910,239.683,219.932,204.832
0.150,12.414,4.997,4.967,239.896,220.309,204.925
0.152,12.840,5.030,5.036,240.101,220.671,205.019
0.153,13.239,5.058,5.116,240.291,221.010,205.110
0.154,13.601,5.083,5.204,240.462,221.317,205.199
0.155,13.918,5.106,5.296,240.609,221.584,205.285
0.157,14.180,5.128,5.388,240.727,221.804,205.364
0.158,14.384,5.152,5.476,240.814,221.973,205.439
0.159,14.537,5.178,5.556,240.873,222.095,205.508
0.160,14.648,5.210,5.624,240.908,222.177,205.574
0.162,14.728,5.247,5.677,240.921,222.225,205.638
0.163,14.794,5.293,5.711,240.918,222.243,205.701
0.164,14.860,5.344,5.728,240.900,222.237,205.765
0.165,14.935,5.400,5.733,240.871,222.214,205.830
0.166,15.019,5.459,5.729,240.836,222.179,205.898
0.168,15.111,5.519,5.719,240.797,222.137,205.970
0.169,15.207,5.577,5.707,240.759,222.094,206.047
0.170,15.306,5.632,5.698,240.723,222.057,206.131
0.171,15.406,5.682,5.694,240.695,222.030,206.223
0.173,15.509,5.726,5.699,240.677,222.019,206.325
0.174,15.619,5.762,5.713,240.670,222.024,206.434
0.175,15.736,5.793,5.735,240.673,222.044,206.549
0.176,15.861,5.819,5.762,240.684,222.076,206.669
0.178,15.990,5.840,5.791,240.703,222.117,206.790
0.179,16.122,5.858,5.822,240.729,222.164,206.911
0.180,16.254,5.873,5.853,240.759,222.215,207.029
0.181,16.384,5.886,5.881,240.793,222.267,207.143
0.182,16.507,5.898,5.904,240.829,222.318,207.249
0.184,16.621,5.910,5.922,240.867,222.365,207.346
0.185,16.724,5.920,5.936,240.905,222.405,207.432
0.186,16.810,5.929,5.945,240.941,222.435,207.505
0.187,16.879,5.937,5.951,240.976,222.454,207.562
0.189,16.930,5.943,5.953,241.007,222.459,207.601
0.190,16.968,5.947,5.953,241.036,222.453,207.625
0.191,17.002,5.948,5.951,241.064,222.438,207.636
0.192,17.038,5.948,5.947,241.094,222.418,207.635
0.194,17.078,5.945,5.941,241.126,222.397,207.626
0.195,17.122,5.938,5.933,241.163,222.377,207.610
0.196,17.172,5.927,5.922,241.206,222.361,207.591
0.197,17.227,5.912,5.907,241.256,222.354,207.570
0.199,17.290,5.892,5.887,241.316,222.359,207.550
0.200,17.365,5.865,5.862,241.387,222.378,207.533
0.201,17.457,5.832,5.831,241.470,222.415,207.522
0.202,17.571,5.792,5.792,241.568,222.474,207.519
0.203,17.711,5.744,5.747,241.681,222.557,207.527
0.205,17.881,5.690,5.695,241.810,222.665,207.545
0.206,18.076,5.630,5.640,241.952,222.795,207.574
0.207,18.291,5.566,5.582,242.105,222.943,207.611
0.208,18.521,5.498,5.523,242.264,223.103,207.655
0.210,18.762,5.427,5.465,242.428,223.272,207.704
0.211,19.007,5.355,5.410,242.592,223.446,207.756
0.212,19.251,5.282,5.359,242.755,223.620,207.810
0.213,19.489,5.209,5.313,242.912,223.790,207.864
0.215,19.715,5.138,5.273,243.062,223.952,207.917
0.216,19.925,5.072,5.239,243.200,224.101,207.966
0.217,20.111,5.012,5.209,243.324,224.234,208.010
0.218,20.270,4.959,5.186,243.431,224.345,208.047
0.219,20.396,4.916,5.167,243.517,224.431,208.077
0.221,20.488,4.885,5.153,243.583,224.492,208.098
0.222,20.552,4.868,5.143,243.630,224.533,208.112
0.223,20.591,4.866,5.138,243.660,224.557,208.121
0.224,20.608,4.876,5.139,243.673,224.568,208.126
0.226,20.612,4.895,5.145,243.671,224.570,208.128
0.227,20.627,4.918,5.158,243.656,224.567,208.129
0.228,20.655,4.941,5.178,243.629,224.563,208.130
0.229,20.692,4.960,5.207,243.591,224.562,208.133
0.231,20.739,4.969,5.246,243.545,224.569,208.138
0.232,20.797,4.966,5.294,243.491,224.586,208.148
0.233,20.866,4.946,5.353,243.431,224.618,208.163
0.234,20.951,4.908,5.420,243.366,224.669,208.185
0.236,21.055,4.858,5.486,243.299,224.742,208.215
0.237,21.177,4.799,5.547,243.232,224.835,208.253
0.238,21.314,4.733,5.595,243.167,224.947,208.301
0.239,21.465,4.666,5.623,243.109,225.074,208.359
0.240,21.628,4.601,5.625,243.061,225.214,208.426
0.242,21.801,4.542,5.594,243.026,225.365,208.503
0.243,21.982,4.491,5.523,243.007,225.522,208.591
0.244,22.172,4.452,5.412,243.006,225.685,208.689
0.245,22.372,4.420,5.271,243.029,225.850,208.799
0.247,22.582,4.395,5.108,243.077,226.015,208.920
0.248,22.805,4.374,4.932,243.154,226.176,209.053
0.249,23.045,4.354,4.754,243.263,226.332,209.199
0.250,23.305,4.334,4.582,243.408,226.480,209.356
0.252,23.588,4.310,4.425,243.588,226.618,209.526
0.253,23.894,4.281,4.294,243.798,226.747,209.707
0.254,24.220,4.246,4.193,244.033,226.868,209.897
0.255,24.560,4.206,4.122,244.287,226.982,210.094
0.256,24.912,4.165,4.076,244.553,227.090,210.296
0.258,25.269,4.124,4.055,244.826,227.193,210.502
0.259,25.627,4.087,4.054,245.100,227.291,210.710
0.260,25.980,4.055,4.071,245.369,227.387,210.919
0.261,26.324,4.033,4.104,245.627,227.480,211.126
0.263,26.653,4.020,4.149,245.868,227.572,211.330
0.264,26.962,4.021,4.204,246.086,227.664,211.529
0.265,27.247,4.034,4.267,246.276,227.756,211.721
0.266,27.506,4.057,4.334,246.431,227.850,211.905
0.268,27.739,4.090,4.405,246.552,227.947,212.081
0.269,27.952,4.131,4.476,246.641,228.044,212.247
0.270,28.148,4.179,4.546,246.703,228.142,212.405
0.271,28.332,4.232,4.612,246.742,228.241,212.555
0.273,28.506,4.289,4.672,246.760,228.340,212.697
0.274,28.672,4.349,4.724,246.763,228.438,212.830
0.275,28.831,4.411,4.768,246.753,228.536,212.957
0.276,28.985,4.473,4.805,246.735,228.632,213.075
0.277,29.132,4.535,4.836,246.713,228.726,213.187
0.279,29.273,4.595,4.862,246.689,228.818,213.291
0.280,29.407,4.652,4.885,246.668,228.907,213.388
0.281,29.533,4.705,4.905,246.654,228.992,213.479
0.282,29.651,4.753,4.923,246.650,229.074,213.564
0.284,29.761,4.795,4.940,246.655,229.152,213.642
0.285,29.865,4.830,4.957,246.667,229.226,213.714
0.286,29.962,4.861,4.973,246.685,229.295,213.780
0.287,30.053,4.886,4.987,246.708,229.360,213.839
0.289,30.137,4.907,5.001,246.733,229.420,213.893
0.290,30.214,4.925,5.012,246.758,229.475,213.940
0.291,30.283,4.939,5.021,246.783,229.525,213.982
0.292,30.344,4.952,5.028,246.805,229.569,214.018
0.293,30.396,4.962,5.032,246.822,229.607,214.048
0.295,30.439,4.972,5.033,246.834,229.640,214.072
0.296,30.472,4.980,5.032,246.838,229.667,214.091
0.297,30.496,4.987,5.029,246.832,229.687,214.104
0.298,30.519,4.992,5.024,246.817,229.701,214.112
0.300,30.542,4.996,5.018,246.796,229.711,214.117
0.301,30.566,4.999,5.012,246.773,229.717,214.119
0.302,30.588,5.000,5.005,246.752,229.721,214.121
0.303,30.605,5.000,4.999,246.735,229.724,214.123
0.305,30.614,4.999,4.993,246.728,229.728,214.127
0.306,30.626,4.997,4.989,246.734,229.734,214.135
0.307,30.653,4.995,4.986,246.756,229.743,214.148
0.308,30.702,4.994,4.987,246.799,229.757,214.167
0.309,30.778,4.994,4.991,246.867,229.777,214.195
0.311,30.884,4.997,4.999,246.962,229.804,214.232
0.312,31.025,5.003,5.011,247.090,229.841,214.280
0.313,31.204,5.012,5.029,247.252,229.887,214.340
0.314,31.421,5.026,5.053,247.449,229.943,214.412
0.316,31.668,5.043,5.083,247.673,230.007,214.495
0.317,31.938,5.064,5.119,247.917,230.077,214.585
0.318,32.225,5.088,5.160,248.177,230.151,214.682
0.319,32.521,5.114,5.207,248.444,230.229,214.784
0.321,32.820,5.142,5.259,248.713,230.307,214.889
0.322,33.115,5.171,5.317,248.978,230.384,214.994
0.323,33.399,5.201,5.379,249.231,230.458,215.099
0.324,33.666,5.232,5.446,249.467,230.528,215.201
0.326,33.908,5.263,5.516,249.679,230.592,215.299
0.327,34.119,5.294,5.587,249.861,230.648,215.390
0.328,34.292,5.326,5.656,250.006,230.694,215.473
0.329,34.423,5.357,5.722,250.109,230.729,215.546
0.330,34.518,5.388,5.782,250.174,230.754,215.610
0.332,34.584,5.419,5.834,250.205,230.771,215.666
0.333,34.634,5.449,5.875,250.208,230.783,215.715
0.334,34.681,5.479,5.905,250.190,230.791,215.757
0.335,34.732,5.509,5.923,250.154,230.798,215.794
0.337,34.790,5.538,5.930,250.108,230.805,215.827
0.338,34.850,5.568,5.931,250.056,230.816,215.857
0.339,34.911,5.599,5.925,250.005,230.831,215.885
0.340,34.968,5.630,5.915,249.959,230.853,215.911
0.342,35.022,5.662,5.904,249.925,230.884,215.938
0.343,35.076,5.695,5.893,249.907,230.927,215.966
0.344,35.140,5.730,5.884,249.911,230.983,215.996
0.345,35.223,5.766,5.879,249.942,231.053,216.028
0.346,35.328,5.804,5.878,249.996,231.137,216.064
0.348,35.456,5.841,5.883,250.072,231.231,216.103
0.349,35.603,5.878,5.894,250.167,231.335,216.145
0.350,35.767,5.915,5.912,250.279,231.446,216.191
0.351,35.947,5.950,5.939,250.407,231.563,216.241
0.353,36.139,5.983,5.974,250.546,231.684,216.294
0.354,36.341,6.014,6.019,250.696,231.807,216.351
0.355,36.551,6.042,6.074,250.853,231.931,216.413
0.356,36.766,6.069,6.136,251.016,232.054,216.479
0.358,36.982,6.095,6.203,251.182,232.174,216.550
0.359,37.199,6.122,6.274,251.349,232.289,216.625
0.360,37.412,6.151,6.346,251.515,232.398,216.705
0.361,37.622,6.183,6.417,251.678,232.499,216.789
0.363,37.826,6.219,6.484,251.837,232.594,216.877
0.364,38.025,6.260,6.546,251.991,232.681,216.966
0.365,38.216,6.306,6.600,252.139,232.762,217.056
0.366,38.399,6.357,6.648,252.280,232.835,217.145
0.367,38.572,6.409,6.689,252.414,232.903,217.232
0.369,38.735,6.463,6.725,252.539,232.964,217.317
0.370,38.886,6.515,6.756,252.655,233.018,217.397
0.371,39.023,6.563,6.783,252.760,233.067,217.472
0.372,39.147,6.607,6.805,252.853,233.109,217.540
0.374,39.254,6.645,6.825,252.934,233.146,217.601
0.375,39.345,6.674,6.842,253.002,233.176,217.652
0.376,39.417,6.695,6.857,253.056,233.202,217.693
0.377,39.472,6.710,6.869,253.096,233.222,217.725
0.379,39.513,6.719,6.880,253.125,233.237,217.749
0.380,39.540,6.725,6.889,253.144,233.249,217.765
0.381,39.557,6.727,6.896,253.154,233.258,217.775
0.382,39.565,6.728,6.901,253.158,233.264,217.780
0.383,39.570,6.727,6.905,253.156,233.268,217.781
0.385,39.576,6.727,6.908,253.150,233.270,217.779
0.386,39.586,6.728,6.910,253.142,233.272,217.774
0.387,39.596,6.730,6.911,253.134,233.274,217.769
0.388,39.605,6.732,6.913,253.126,233.276,217.764
0.390,39.613,6.735,6.914,253.121,233.279,217.760
0.391,39.618,6.739,6.917,253.120,233.284,217.758
0.392,39.626,6.744,6.921,253.123,233.291,217.759
0.393,39.638,6.749,6.926,253.131,233.300,217.763
0.395,39.656,6.756,6.934,253.142,233.311,217.770
0.396,39.677,6.763,6.943,253.156,233.324,217.780
0.397,39.701,6.771,6.954,253.171,233.339,217.792
0.398,39.728,6.780,6.966,253.187,233.355,217.806
0.400,39.757,6.789,6.977,253.204,233.373,217.822
0.401,39.788,6.800,6.988,253.219,233.393,217.841
0.402,39.821,6.812,6.998,253.232,233.414,217.861
0.403,39.854,6.824,7.007,253.243,233.436,217.883
0.404,39.888,6.838,7.013,253.251,233.460,217.906
0.406,39.923,6.853,7.016,253.254,233.485,217.931
0.407,39.960,6.868,7.017,253.252,233.511,217.957
0.408,39.999,6.884,7.018,253.246,233.539,217.984
0.409,40.040,6.899,7.018,253.236,233.567,218.011
0.411,40.082,6.915,7.019,253.223,233.597,218.039
0.412,40.126,6.929,7.021,253.210,233.627,218.066
0.413,40.169,6.943,7.025,253.198,233.659,218.093
0.414,40.213,6.955,7.031,253.187,233.692,218.119
0.416,40.256,6.966,7.041,253.179,233.727,218.144
0.417,40.298,6.975,7.052,253.175,233.762,218.167
0.418,40.341,6.983,7.065,253.178,233.799,218.188
0.419,40.384,6.990,7.077,253.187,233.838,218.207
0.420,40.431,6.995,7.087,253.204,233.877,218.222
0.422,40.481,6.998,7.095,253.232,233.918,218.235
0.423,40.539,7.000,7.098,253.269,233.961,218.244
0.424,40.603,7.001,7.096,253.317,234.004,218.250
0.425,40.672,7.000,7.087,253.371,234.047,218.252
0.427,40.745,6.998,7.074,253.431,234.088,218.250
0.428,40.820,6.993,7.057,253.494,234.127,218.245
0.429,40.895,6.986,7.039,253.559,234.164,218.237
0.430,40.967,6.977,7.021,253.623,234.196,218.226
0.432,41.036,6.964,7.005,253.684,234.224,218.211
0.433,41.099,6.948,6.993,253.741,234.246,218.193
0.434,41.156,6.928,6.986,253.791,234.262,218.173
0.435,41.204,6.904,6.986,253.832,234.269,218.149
0.436,41.244,6.877,6.992,253.862,234.269,218.122
0.438,41.280,6.848,7.003,253.880,234.259,218.092
0.439,41.318,6.819,7.017,253.884,234.240,218.060
0.440,41.360,6.791,7.031,253.879,234.216,218.026
0.441,41.404,6.765,7.044,253.867,234.190,217.993
0.443,41.446,6.744,7.054,253.852,234.167,217.961
0.444,41.482,6.728,7.060,253.839,234.151,217.931
0.445,41.510,6.718,7.059,253.830,234.145,217.905
0.446,41.532,6.714,7.050,253.830,234.153,217.885
0.448,41.565,6.711,7.031,253.843,234.180,217.871
0.449,41.622,6.705,7.000,253.871,234.230,217.865
0.450,41.712,6.691,6.956,253.919,234.306,217.869
0.451,41.841,6.666,6.898,253.990,234.412,217.883
0.453,42.014,6.625,6.823,254.088,234.553,217.908
0.454,42.238,6.564,6.730,254.217,234.732,217.947
0.455,42.511,6.479,6.617,254.377,234.948,217.999
0.456,42.827,6.369,6.486,254.562,235.195,218.060
0.457,43.177,6.240,6.340,254.770,235.468,218.129
0.459,43.554,6.097,6.183,254.996,235.761,218.204
0.460,43.951,5.945,6.021,255.237,236.067,218.281
0.461,44.360,5.790,5.858,255.487,236.382,218.359
0.462,44.775,5.636,5.698,255.743,236.699,218.434
0.464,45.187,5.490,5.546,256.000,237.012,218.505
0.465,45.589,5.356,5.406,256.256,237.316,218.569
0.466,45.974,5.239,5.282,256.505,237.605,218.624
0.467,46.335,5.138,5.173,256.743,237.872,218.666
0.469,46.665,5.052,5.080,256.967,238.113,218.695
0.470,46.958,4.982,5.002,257.173,238.322,218.707
0.471,47.216,4.926,4.939,257.360,238.499,218.703
0.472,47.444,4.884,4.891,257.532,238.648,218.686
0.473,47.645,4.854,4.857,257.689,238.771,218.657
0.475,47.825,4.837,4.837,257.833,238.870,218.617
0.476,47.987,4.832,4.831,257.966,238.950,218.569
0.477,48.136,4.837,4.837,258.089,239.012,218.515
0.478,48.274,4.849,4.851,258.205,239.059,218.455
0.480,48.405,4.868,4.873,258.315,239.094,218.393
0.481,48.531,4.891,4.899,258.420,239.120,218.329
0.482,48.654,4.917,4.926,258.523,239.140,218.265
0.483,48.774,4.943,4.954,258.625,239.156,218.204
0.485,48.892,4.967,4.978,258.728,239.171,218.147
0.486,49.010,4.988,4.998,258.833,239.187,218.096
0.487,49.128,5.006,5.013,258.939,239.206,218.049
0.488,49.245,5.020,5.024,259.046,239.229,218.005
0.490,49.363,5.032,5.031,259.154,239.256,217.965
0.491,49.481,5.041,5.037,259.261,239.288,217.927
0.492,49.600,5.048,5.042,259.367,239.327,217.890
0.493,49.721,5.053,5.048,259.472,239.373,217.854
0.494,49.843,5.056,5.054,259.575,239.428,217.818
0.496,49.967,5.058,5.062,259.675,239.492,217.781
0.497,50.096,5.059,5.072,259.772,239.567,217.741
0.498,50.229,5.060,5.085,259.865,239.653,217.700
0.499,50.369,5.063,5.099,259.953,239.751,217.654
0.501,50.517,5.066,5.116,260.037,239.863,217.605
0.502,50.674,5.073,5.133,260.115,239.988,217.551
0.503,50.839,5.082,5.152,260.189,240.125,217.495
