"T","Distance","Radius","FreeRadius","X","Y","Z"
0.000,0.000,2.126,2.126,233.256,257.718,265.069
0.001,0.105,2.156,2.156,233.179,257.663,265.115
0.002,0.211,2.186,2.186,233.101,257.608,265.160
0.003,0.316,2.215,2.215,233.024,257.553,265.206
0.005,0.421,2.243,2.243,232.947,257.498,265.252
0.006,0.525,2.271,2.271,232.870,257.444,265.297
0.007,0.629,2.296,2.296,232.794,257.390,265.342
0.008,0.733,2.320,2.320,232.719,257.336,265.388
0.009,0.835,2.342,2.342,232.643,257.282,265.432
0.010,0.937,2.362,2.362,232.569,257.229,265.477
0.012,1.038,2.379,2.379,232.495,257.176,265.521
0.013,1.138,2.394,2.394,232.422,257.124,265.565
0.014,1.237,2.408,2.408,232.350,257.072,265.608
0.015,1.333,2.420,2.420,232.278,257.023,265.649
0.016,1.423,2.430,2.430,232.207,256.978,265.681
0.017,1.508,2.441,2.441,232.133,256.941,265.702
0.019,1.588,2.450,2.450,232.059,256.914,265.706
0.020,1.668,2.460,2.460,231.981,256.899,265.690
0.021,1.759,2.470,2.470,231.900,256.900,265.650
0.022,1.871,2.482,2.482,231.815,256.918,265.579
0.023,2.014,2.500,2.500,231.725,256.957,265.475
0.024,2.196,2.525,2.525,231.629,257.019,265.333
0.025,2.424,2.563,2.563,231.526,257.107,265.149
0.027,2.705,2.615,2.615,231.417,257.223,264.918
0.028,3.039,2.684,2.684,231.300,257.367,264.641
0.029,3.416,2.775,2.775,231.179,257.535,264.325
0.030,3.826,2.889,2.889,231.056,257.721,263.981
0.031,4.258,3.029,3.029,230.935,257.920,263.618
0.032,4.700,3.191,3.191,230.816,258.126,263.245
0.034,5.142,3.366,3.366,230.705,258.334,262.871
0.035,5.573,3.548,3.548,230.602,258.540,262.507
0.036,5.981,3.729,3.729,230.511,258.737,262.161
0.037,6.356,3.902,3.902,230.435,258.921,261.844
0.038,6.686,4.058,4.058,230.375,259.085,261.563
0.039,6.961,4.191,4.191,230.336,259.225,261.330
0.041,7.173,4.293,4.293,230.318,259.337,261.151
0.042,7.326,4.359,4.359,230.321,259.422,261.023
0.043,7.430,4.394,4.394,230.342,259.482,260.941
0.044,7.499,4.402,4.402,230.377,259.522,260.898
0.045,7.552,4.389,4.389,230.424,259.544,260.887
0.046,7.612,4.360,4.360,230.481,259.553,260.902
0.047,7.684,4.322,4.322,230.544,259.550,260.937
0.049,7.767,4.279,4.279,230.611,259.540,260.986
0.050,7.857,4.238,4.238,230.679,259.525,261.042
0.051,7.945,4.202,4.202,230.745,259.509,261.099
0.052,8.026,4.176,4.176,230.806,259.495,261.150
0.053,8.093,4.159,4.159,230.860,259.487,261.189
0.054,8.146,4.149,4.149,230.906,259.486,261.215
0.056,8.184,4.147,4.147,230.942,259.491,261.228
0.057,8.214,4.150,4.150,230.969,259.504,261.230
0.058,8.242,4.159,4.159,230.986,259.525,261.223
0.059,8.275,4.171,4.171,230.994,259.553,261.208
0.060,8.317,4.187,4.187,230.992,259.588,261.187
0.061,8.369,4.205,4.205,230.980,259.632,261.161
0.063,8.432,4.226,4.226,230.957,259.683,261.132
0.064,8.507,4.248,4.248,230.923,259.743,261.102
0.065,8.593,4.272,4.272,230.879,259.811,261.071
0.066,8.691,4.299,4.299,230.824,259.887,261.043
0.067,8.801,4.328,4.328,230.758,259.971,261.017
0.068,8.921,4.358,4.358,230.684,260.062,260.993
0.069,9.049,4.391,4.391,230.603,260.159,260.971
0.071,9.181,4.426,4.426,230.520,260.259,260.951
0.072,9.317,4.462,4.462,230.435,260.363,260.930
0.073,9.452,4.500,4.500,230.352,260.467,260.910
0.074,9.584,4.539,4.539,230.272,260.571,260.890
0.075,9.712,4.576,4.576,230.199,260.674,260.868
0.076,9.833,4.612,4.612,230.135,260.774,260.845
0.078,9.945,4.646,4.646,230.082,260.869,260.819
0.079,10.047,4.676,4.676,230.043,260.959,260.791
0.080,10.138,4.701,4.701,230.020,261.041,260.760
0.081,10.222,4.721,4.721,230.011,261.117,260.725
0.082,10.299,4.735,4.735,230.016,261.185,260.689
0.083,10.374,4.744,4.744,230.032,261.248,260.651
0.084,10.446,4.749,4.749,230.057,261.304,260.612
0.086,10.517,4.749,4.749,230.088,261.354,260.574
0.087,10.587,4.747,4.747,230.125,261.400,260.536
0.088,10.654,4.743,4.743,230.163,261.440,260.499
0.089,10.717,4.738,4.738,230.203,261.476,260.465
0.090,10.776,4.733,4.733,230.241,261.508,260.434
0.091,10.828,4.728,4.728,230.275,261.536,260.406
0.093,10.873,4.724,4.724,230.304,261.561,260.383
0.094,10.909,4.720,4.720,230.327,261.582,260.364
0.095,10.938,4.718,4.718,230.343,261.602,260.350
0.096,10.962,4.716,4.716,230.354,261.619,260.339
0.097,10.980,4.715,4.715,230.361,261.634,260.331
0.098,10.995,4.714,4.714,230.364,261.649,260.326
0.100,11.009,4.713,4.713,230.363,261.662,260.324
0.101,11.023,4.713,4.713,230.360,261.675,260.323
0.102,11.037,4.713,4.713,230.355,261.689,260.324
0.103,11.052,4.714,4.714,230.349,261.702,260.326
0.104,11.068,4.714,4.714,230.343,261.717,260.328
0.105,11.085,4.714,4.714,230.336,261.732,260.331
0.106,11.103,4.714,4.714,230.331,261.750,260.333
0.108,11.122,4.713,4.713,230.326,261.768,260.334
0.109,11.141,4.712,4.712,230.322,261.786,260.335
0.110,11.160,4.709,4.709,230.320,261.805,260.335
0.111,11.177,4.706,4.706,230.319,261.822,260.333
0.112,11.193,4.701,4.701,230.320,261.837,260.329
0.113,11.207,4.696,4.696,230.322,261.850,260.323
0.115,11.221,4.691,4.691,230.327,261.861,260.315
0.116,11.235,4.686,4.686,230.334,261.867,260.305
0.117,11.252,4.683,4.683,230.344,261.869,260.292
0.118,11.272,4.682,4.682,230.356,261.866,260.276
0.119,11.298,4.684,4.684,230.371,261.858,260.256
0.120,11.329,4.688,4.688,230.388,261.846,260.234
0.122,11.361,4.697,4.697,230.405,261.832,260.211
0.123,11.393,4.709,4.709,230.422,261.819,260.187
0.124,11.421,4.723,4.723,230.436,261.810,260.164
0.125,11.444,4.736,4.736,230.446,261.807,260.143
0.126,11.464,4.747,4.747,230.450,261.814,260.125
0.127,11.486,4.753,4.754,230.448,261.832,260.112
0.128,11.521,4.753,4.753,230.438,261.864,260.104
0.130,11.574,4.743,4.743,230.418,261.913,260.103
0.131,11.650,4.723,4.723,230.387,261.982,260.109
0.132,11.752,4.690,4.690,230.343,262.073,260.125
0.133,11.881,4.644,4.644,230.287,262.187,260.150
0.134,12.037,4.588,4.588,230.219,262.322,260.183
0.135,12.216,4.526,4.526,230.142,262.479,260.223
0.137,12.416,4.460,4.460,230.056,262.654,260.269
0.138,12.636,4.393,4.393,229.965,262.847,260.320
0.139,12.872,4.328,4.327,229.870,263.057,260.375
0.140,13.123,4.267,4.267,229.772,263.280,260.432
0.141,13.386,4.214,4.214,229.672,263.517,260.491
0.142,13.660,4.172,4.172,229.574,263.766,260.550
0.144,13.942,4.139,4.140,229.479,264.025,260.608
0.145,14.230,4.116,4.116,229.387,264.292,260.664
0.146,14.523,4.100,4.100,229.302,264.567,260.717
0.147,14.816,4.090,4.090,229.222,264.845,260.768
0.148,15.107,4.085,4.086,229.149,265.123,260.816
0.149,15.392,4.084,4.085,229.083,265.396,260.862
0.150,15.667,4.086,4.086,229.024,265.660,260.907
0.152,15.928,4.089,4.089,228.972,265.913,260.951
0.153,16.173,4.093,4.092,228.927,266.149,260.995
0.154,16.396,4.096,4.095,228.889,266.364,261.039
0.155,16.595,4.100,4.099,228.859,266.556,261.083
0.156,16.765,4.103,4.102,228.837,266.719,261.129
0.157,16.905,4.107,4.105,228.823,266.850,261.176
0.159,17.013,4.109,4.107,228.816,266.945,261.225
0.160,17.092,4.112,4.110,228.817,267.007,261.275
0.161,17.150,4.113,4.112,228.821,267.043,261.320
0.162,17.191,4.114,4.115,228.827,267.061,261.356
0.163,17.217,4.115,4.117,228.831,267.068,261.381
0.164,17.227,4.119,4.123,228.831,267.073,261.389
0.166,17.243,4.128,4.134,228.824,267.082,261.377
0.167,17.288,4.144,4.152,228.808,267.104,261.341
0.168,17.371,4.172,4.179,228.780,267.146,261.276
0.169,17.498,4.212,4.219,228.736,267.215,261.179
0.170,17.678,4.268,4.273,228.675,267.320,261.045
0.171,17.921,4.342,4.343,228.594,267.468,260.871
0.172,18.228,4.436,4.432,228.492,267.661,260.656
0.174,18.589,4.549,4.539,228.373,267.893,260.406
0.175,18.991,4.676,4.658,228.240,268.155,260.131
0.176,19.423,4.811,4.787,228.098,268.438,259.837
0.177,19.871,4.949,4.921,227.951,268.733,259.534
0.178,20.323,5.086,5.057,227.804,269.032,259.229
0.179,20.766,5.217,5.191,227.660,269.326,258.929
0.181,21.189,5.335,5.318,227.524,269.606,258.644
0.182,21.577,5.438,5.436,227.399,269.863,258.381
0.183,21.920,5.519,5.540,227.291,270.089,258.147
0.184,22.204,5.581,5.630,227.202,270.276,257.952
0.185,22.419,5.626,5.707,227.137,270.415,257.802
0.186,22.568,5.657,5.770,227.094,270.509,257.694
0.188,22.661,5.677,5.821,227.070,270.564,257.623
0.189,22.708,5.687,5.860,227.061,270.585,257.582
0.190,22.726,5.692,5.887,227.064,270.579,257.566
0.191,22.757,5.693,5.902,227.076,270.550,257.569
0.192,22.808,5.693,5.906,227.092,270.505,257.584
0.193,22.871,5.695,5.901,227.111,270.449,257.606
0.194,22.938,5.699,5.887,227.128,270.388,257.629
0.196,23.001,5.705,5.869,227.140,270.328,257.647
0.197,23.055,5.713,5.848,227.144,270.275,257.654
0.198,23.098,5.724,5.827,227.137,270.234,257.644
0.199,23.142,5.738,5.809,227.116,270.208,257.615
0.200,23.199,5.756,5.795,227.084,270.195,257.570
0.201,23.273,5.777,5.789,227.040,270.194,257.510
0.203,23.363,5.802,5.794,226.987,270.203,257.438
0.204,23.468,5.831,5.809,226.925,270.221,257.355
0.205,23.585,5.864,5.833,226.855,270.247,257.265
0.206,23.712,5.899,5.865,226.779,270.279,257.169
0.207,23.847,5.936,5.904,226.696,270.316,257.069
0.208,23.986,5.975,5.947,226.609,270.356,256.968
0.209,24.127,6.015,5.994,226.519,270.398,256.868
0.211,24.268,6.055,6.043,226.425,270.441,256.771
0.212,24.407,6.095,6.093,226.330,270.483,256.679
0.213,24.543,6.134,6.141,226.235,270.524,256.592
0.214,24.675,6.172,6.188,226.139,270.563,256.511
0.215,24.802,6.209,6.233,226.045,270.601,256.434
0.216,24.924,6.244,6.275,225.952,270.638,256.363
0.218,25.040,6.277,6.315,225.863,270.672,256.297
0.219,25.150,6.308,6.352,225.777,270.705,256.237
0.220,25.252,6.337,6.385,225.697,270.735,256.182
0.221,25.346,6.362,6.415,225.622,270.762,256.133
0.222,25.431,6.385,6.440,225.553,270.787,256.089
0.223,25.506,6.405,6.461,225.492,270.808,256.051
0.225,25.570,6.422,6.479,225.439,270.826,256.019
0.226,25.624,6.436,6.493,225.395,270.841,255.992
0.227,25.669,6.449,6.505,225.358,270.853,255.969
0.228,25.707,6.460,6.515,225.327,270.863,255.950
0.229,25.737,6.469,6.525,225.302,270.870,255.934
0.230,25.762,6.477,6.534,225.283,270.874,255.919
0.231,25.782,6.485,6.544,225.267,270.877,255.906
0.233,25.800,6.493,6.555,225.255,270.878,255.893
0.234,25.816,6.500,6.567,225.247,270.878,255.880
0.235,25.832,6.507,6.580,225.240,270.876,255.866
0.236,25.849,6.514,6.592,225.234,270.873,255.850
0.237,25.869,6.520,6.604,225.229,270.869,255.831
0.238,25.892,6.525,6.614,225.224,270.865,255.809
0.240,25.918,6.529,6.622,225.218,270.862,255.783
0.241,25.949,6.531,6.627,225.211,270.861,255.753
0.242,25.985,6.531,6.627,225.203,270.863,255.718
0.243,26.026,6.529,6.623,225.193,270.868,255.679
0.244,26.074,6.525,6.614,225.179,270.879,255.634
0.245,26.130,6.520,6.601,225.163,270.896,255.583
0.247,26.195,6.512,6.584,225.143,270.920,255.527
0.248,26.269,6.502,6.566,225.119,270.952,255.464
0.249,26.356,6.491,6.545,225.090,270.993,255.394
0.250,26.455,6.479,6.524,225.057,271.045,255.316
0.251,26.567,6.465,6.502,225.017,271.107,255.232
0.252,26.691,6.450,6.480,224.974,271.180,255.141
0.253,26.824,6.434,6.460,224.926,271.260,255.047
0.255,26.963,6.416,6.441,224.876,271.347,254.950
0.256,27.107,6.398,6.423,224.824,271.439,254.852
0.257,27.253,6.380,6.407,224.771,271.534,254.756
0.258,27.398,6.361,6.391,224.718,271.632,254.662
0.259,27.539,6.341,6.376,224.666,271.729,254.573
0.260,27.674,6.322,6.362,224.617,271.825,254.491
0.262,27.802,6.303,6.349,224.570,271.917,254.417
0.263,27.919,6.284,6.336,224.528,272.005,254.353
0.264,28.023,6.266,6.324,224.490,272.087,254.301
0.265,28.115,6.247,6.311,224.458,272.163,254.261
0.266,28.197,6.229,6.298,224.429,272.234,254.231
0.267,28.272,6.211,6.283,224.404,272.302,254.211
0.269,28.343,6.192,6.267,224.381,272.368,254.200
0.270,28.411,6.172,6.249,224.360,272.433,254.197
0.271,28.480,6.152,6.228,224.340,272.499,254.201
0.272,28.551,6.130,6.204,224.320,272.567,254.210
0.273,28.627,6.107,6.176,224.300,272.638,254.224
0.274,28.707,6.083,6.144,224.278,272.714,254.242
0.275,28.795,6.057,6.110,224.254,272.795,254.262
0.277,28.890,6.031,6.074,224.227,272.884,254.284
0.278,28.994,6.003,6.037,224.197,272.980,254.307
0.279,29.103,5.974,6.001,224.165,273.082,254.331
0.280,29.216,5.944,5.966,224.132,273.187,254.356
0.281,29.330,5.913,5.934,224.099,273.294,254.380
0.282,29.443,5.882,5.905,224.067,273.399,254.405
0.284,29.552,5.851,5.881,224.038,273.501,254.431
0.285,29.655,5.819,5.861,224.011,273.597,254.456
0.286,29.750,5.788,5.846,223.990,273.686,254.480
0.287,29.834,5.759,5.834,223.974,273.765,254.505
0.288,29.906,5.732,5.824,223.964,273.832,254.528
0.289,29.963,5.707,5.817,223.963,273.885,254.551
0.291,30.007,5.687,5.812,223.969,273.923,254.573
0.292,30.041,5.670,5.807,223.982,273.946,254.593
0.293,30.068,5.659,5.803,223.997,273.961,254.610
0.294,30.089,5.653,5.798,224.011,273.969,254.624
0.295,30.105,5.651,5.793,224.022,273.975,254.634
0.296,30.114,5.652,5.785,224.024,273.982,254.639
0.297,30.128,5.654,5.775,224.015,273.994,254.638
0.299,30.160,5.654,5.761,223.992,274.014,254.630
0.300,30.214,5.652,5.742,223.951,274.047,254.615
0.301,30.297,5.646,5.718,223.889,274.095,254.591
0.302,30.412,5.633,5.688,223.803,274.163,254.558
0.303,30.564,5.613,5.651,223.688,274.253,254.515
0.304,30.752,5.583,5.606,223.547,274.366,254.463
0.306,30.970,5.546,5.556,223.384,274.498,254.403
0.307,31.209,5.503,5.502,223.205,274.643,254.338
0.308,31.464,5.456,5.446,223.015,274.797,254.268
0.309,31.727,5.406,5.391,222.819,274.956,254.195
0.310,31.990,5.354,5.338,222.623,275.117,254.122
0.311,32.248,5.302,5.289,222.431,275.273,254.050
0.313,32.492,5.252,5.246,222.250,275.422,253.981
0.314,32.716,5.205,5.211,222.085,275.558,253.916
0.315,32.913,5.161,5.184,221.940,275.678,253.858
0.316,33.075,5.122,5.164,221.821,275.776,253.808
0.317,33.199,5.086,5.150,221.731,275.851,253.767
0.318,33.289,5.055,5.139,221.667,275.907,253.735
0.319,33.352,5.027,5.130,221.625,275.945,253.709
0.321,33.394,5.003,5.122,221.601,275.972,253.688
0.322,33.420,4.982,5.113,221.591,275.990,253.671
0.323,33.440,4.965,5.101,221.590,276.004,253.658
0.324,33.459,4.952,5.086,221.595,276.017,253.645
0.325,33.480,4.942,5.066,221.602,276.033,253.633
0.326,33.508,4.934,5.044,221.607,276.057,253.619
0.328,33.547,4.927,5.019,221.605,276.092,253.603
0.329,33.602,4.921,4.993,221.593,276.142,253.583
0.330,33.680,4.915,4.965,221.568,276.211,253.558
0.331,33.779,4.908,4.938,221.528,276.297,253.528
0.332,33.897,4.899,4.912,221.477,276.398,253.493
0.333,34.031,4.887,4.887,221.417,276.511,253.455
0.334,34.175,4.873,4.865,221.349,276.631,253.413
0.336,34.328,4.856,4.844,221.275,276.758,253.369
0.337,34.485,4.837,4.826,221.198,276.887,253.323
0.338,34.643,4.818,4.809,221.119,277.015,253.276
0.339,34.798,4.798,4.794,221.041,277.140,253.228
0.340,34.947,4.779,4.780,220.965,277.259,253.180
0.341,35.086,4.762,4.768,220.893,277.368,253.132
0.343,35.211,4.747,4.756,220.828,277.464,253.086
0.344,35.322,4.735,4.745,220.770,277.548,253.042
0.345,35.422,4.727,4.734,220.717,277.620,252.999
0.346,35.512,4.722,4.725,220.669,277.684,252.957
0.347,35.595,4.719,4.717,220.624,277.742,252.917
0.348,35.674,4.718,4.711,220.581,277.796,252.878
0.350,35.751,4.718,4.708,220.539,277.848,252.841
0.351,35.828,4.718,4.706,220.496,277.901,252.804
0.352,35.908,4.718,4.708,220.452,277.957,252.769
0.353,35.993,4.718,4.713,220.404,278.018,252.735
0.354,36.085,4.716,4.722,220.352,278.086,252.702
0.355,36.188,4.712,4.735,220.294,278.165,252.671
0.356,36.303,4.709,4.751,220.229,278.255,252.639
0.358,36.430,4.708,4.769,220.159,278.356,252.608
0.359,36.567,4.708,4.791,220.082,278.465,252.577
0.360,36.713,4.713,4.814,219.999,278.581,252.543
0.361,36.868,4.722,4.839,219.912,278.703,252.507
0.362,37.028,4.737,4.865,219.819,278.828,252.469
0.363,37.194,4.759,4.892,219.722,278.956,252.426
0.365,37.363,4.790,4.919,219.622,279.084,252.378
0.366,37.536,4.828,4.947,219.518,279.210,252.325
0.367,37.710,4.871,4.975,219.410,279.334,252.265
0.368,37.885,4.919,5.004,219.301,279.453,252.198
0.369,38.061,4.969,5.034,219.189,279.565,252.122
0.370,38.236,5.019,5.066,219.075,279.671,252.040
0.372,38.411,5.069,5.098,218.961,279.770,251.953
0.373,38.582,5.116,5.133,218.847,279.862,251.863
0.374,38.750,5.159,5.169,218.734,279.946,251.772
0.375,38.913,5.197,5.206,218.623,280.024,251.682
0.376,39.068,5.230,5.245,218.515,280.095,251.596
0.377,39.215,5.259,5.286,218.411,280.158,251.514
0.378,39.352,5.286,5.327,218.311,280.215,251.439
0.380,39.477,5.310,5.368,218.217,280.264,251.373
0.381,39.588,5.332,5.409,218.130,280.306,251.318
0.382,39.685,5.355,5.450,218.049,280.340,251.277
0.383,39.768,5.377,5.489,217.976,280.368,251.248
0.384,39.841,5.402,5.528,217.910,280.392,251.230
0.385,39.906,5.427,5.565,217.850,280.414,251.220
0.387,39.966,5.454,5.600,217.794,280.436,251.213
0.388,40.024,5.481,5.632,217.743,280.462,251.207
0.389,40.082,5.509,5.662,217.695,280.493,251.200
0.390,40.144,5.535,5.688,217.649,280.532,251.187
0.391,40.213,5.561,5.711,217.604,280.582,251.166
0.392,40.296,5.585,5.729,217.561,280.645,251.134
0.394,40.397,5.608,5.742,217.516,280.722,251.088
0.395,40.521,5.627,5.751,217.471,280.818,251.024
0.396,40.670,5.644,5.755,217.423,280.932,250.941
0.397,40.843,5.660,5.755,217.374,281.065,250.841
0.398,41.035,5.675,5.754,217.322,281.211,250.729
0.399,41.240,5.690,5.753,217.269,281.370,250.609
0.400,41.455,5.706,5.752,217.213,281.536,250.487
0.402,41.673,5.723,5.753,217.155,281.709,250.365
0.403,41.891,5.742,5.757,217.095,281.884,250.250
0.404,42.105,5.765,5.766,217.032,282.059,250.145
0.405,42.309,5.791,5.780,216.968,282.231,250.055
0.406,42.501,5.821,5.801,216.902,282.397,249.985
0.407,42.678,5.853,5.826,216.833,282.554,249.938
0.409,42.841,5.887,5.856,216.763,282.698,249.919
0.410,42.992,5.922,5.890,216.690,282.831,249.928
0.411,43.138,5.957,5.929,216.618,282.954,249.962
0.412,43.284,5.993,5.971,216.546,283.068,250.016
0.413,43.431,6.027,6.015,216.476,283.176,250.086
0.414,43.580,6.060,6.063,216.408,283.279,250.170
0.416,43.731,6.091,6.113,216.344,283.380,250.263
0.417,43.883,6.120,6.163,216.284,283.480,250.361
0.418,44.035,6.147,6.215,216.230,283.581,250.461
0.419,44.186,6.173,6.265,216.183,283.685,250.559
0.420,44.334,6.198,6.315,216.143,283.795,250.651
0.421,44.480,6.223,6.362,216.112,283.911,250.733
0.422,44.625,6.248,6.406,216.091,284.035,250.804
0.424,44.769,6.272,6.446,216.076,284.166,250.863
0.425,44.915,6.297,6.482,216.067,284.303,250.912
0.426,45.061,6.323,6.512,216.062,284.444,250.952
0.427,45.209,6.348,6.538,216.058,284.588,250.985
0.428,45.357,6.374,6.561,216.055,284.733,251.011
0.429,45.504,6.399,6.581,216.050,284.879,251.031
0.431,45.650,6.423,6.600,216.042,285.024,251.047
0.432,45.793,6.446,6.617,216.028,285.166,251.060
0.433,45.934,6.468,6.635,216.007,285.305,251.070
0.434,46.072,6.488,6.653,215.977,285.439,251.080
0.435,46.206,6.507,6.672,215.937,285.566,251.089
0.436,46.337,6.523,6.692,215.887,285.687,251.099
0.438,46.465,6.537,6.713,215.830,285.802,251.108
0.439,46.589,6.550,6.733,215.768,285.909,251.117
0.440,46.709,6.562,6.751,215.702,286.009,251.125
0.441,46.824,6.572,6.768,215.636,286.102,251.132
0.442,46.931,6.581,6.781,215.570,286.187,251.137
0.443,47.031,6.589,6.790,215.508,286.265,251.140
0.444,47.122,6.596,6.795,215.450,286.335,251.142
0.446,47.202,6.603,6.795,215.399,286.396,251.141
0.447,47.269,6.608,6.791,215.357,286.450,251.137
0.448,47.324,6.612,6.784,215.327,286.495,251.130
0.449,47.367,6.614,6.776,215.307,286.531,251.121
0.450,47.400,6.615,6.769,215.296,286.560,251.110
0.451,47.425,6.613,6.764,215.291,286.582,251.098
0.453,47.445,6.608,6.763,215.290,286.598,251.087
0.454,47.458,6.601,6.766,215.291,286.608,251.078
0.455,47.466,6.590,6.776,215.290,286.613,251.071
0.456,47.471,6.576,6.793,215.287,286.613,251.068
0.457,47.482,6.560,6.815,215.277,286.609,251.070
0.458,47.503,6.543,6.840,215.259,286.601,251.077
0.459,47.536,6.528,6.866,215.231,286.591,251.092
0.461,47.585,6.515,6.892,215.190,286.579,251.115
0.462,47.650,6.506,6.915,215.134,286.566,251.146
0.463,47.729,6.502,6.933,215.065,286.556,251.185
0.464,47.820,6.504,6.945,214.986,286.555,251.228
0.465,47.920,6.515,6.948,214.897,286.568,251.274
0.466,48.031,6.531,6.942,214.802,286.598,251.321
0.468,48.154,6.550,6.925,214.701,286.651,251.368
0.469,48.292,6.566,6.897,214.598,286.732,251.412
0.470,48.451,6.576,6.858,214.494,286.845,251.451
0.471,48.636,6.575,6.806,214.390,286.995,251.484
