"T","Distance","Radius","FreeRadius","X","Y","Z"
0.000,0.000,2.487,2.487,224.033,211.558,205.370
0.001,0.052,2.505,2.505,224.038,211.543,205.420
0.003,0.103,2.523,2.523,224.043,211.528,205.468
0.004,0.153,2.542,2.542,224.047,211.514,205.517
0.006,0.203,2.560,2.560,224.052,211.501,205.564
0.007,0.251,2.579,2.579,224.056,211.490,205.610
0.009,0.297,2.599,2.599,224.060,211.480,205.655
0.010,0.341,2.618,2.618,224.063,211.472,205.698
0.012,0.382,2.638,2.638,224.066,211.466,205.739
0.013,0.421,2.659,2.659,224.068,211.464,205.778
0.015,0.458,2.679,2.679,224.070,211.464,205.815
0.016,0.491,2.700,2.700,224.071,211.468,205.848
0.018,0.523,2.720,2.720,224.071,211.476,205.879
0.019,0.553,2.740,2.740,224.070,211.488,205.906
0.021,0.583,2.759,2.759,224.068,211.502,205.932
0.022,0.613,2.777,2.777,224.065,211.519,205.958
0.024,0.646,2.793,2.793,224.060,211.537,205.984
0.025,0.680,2.806,2.806,224.054,211.556,206.012
0.027,0.718,2.815,2.815,224.045,211.575,206.043
0.028,0.759,2.820,2.820,224.035,211.594,206.078
0.030,0.805,2.819,2.819,224.022,211.610,206.119
0.031,0.856,2.813,2.813,224.007,211.625,206.167
0.033,0.916,2.801,2.801,223.989,211.637,206.222
0.034,0.983,2.787,2.787,223.968,211.644,206.286
0.036,1.061,2.774,2.774,223.944,211.648,206.360
0.037,1.149,2.765,2.765,223.918,211.646,206.444
0.039,1.247,2.761,2.761,223.888,211.639,206.537
0.040,1.355,2.767,2.767,223.855,211.627,206.639
0.042,1.472,2.784,2.784,223.820,211.609,206.749
0.043,1.599,2.813,2.813,223.781,211.585,206.867
0.045,1.733,2.850,2.850,223.740,211.555,206.992
0.046,1.876,2.896,2.896,223.697,211.519,207.123
0.048,2.027,2.947,2.947,223.651,211.475,207.260
0.049,2.186,3.003,3.003,223.602,211.424,207.403
0.051,2.352,3.061,3.061,223.552,211.366,207.550
0.052,2.525,3.120,3.120,223.499,211.301,207.701
0.053,2.705,3.180,3.180,223.444,211.227,207.855
0.055,2.889,3.241,3.241,223.387,211.146,208.011
0.056,3.077,3.303,3.303,223.330,211.058,208.167
0.058,3.266,3.366,3.366,223.272,210.964,208.320
0.059,3.455,3.430,3.430,223.214,210.863,208.469
0.061,3.642,3.495,3.495,223.158,210.756,208.611
0.062,3.826,3.561,3.561,223.102,210.644,208.746
0.064,4.006,3.626,3.626,223.049,210.526,208.872
0.065,4.180,3.690,3.690,222.999,210.404,208.985
0.067,4.348,3.750,3.750,222.951,210.277,209.085
0.068,4.510,3.806,3.806,222.907,210.147,209.170
0.070,4.665,3.856,3.856,222.868,210.012,209.237
0.071,4.815,3.899,3.899,222.833,209.876,209.288
0.073,4.961,3.936,3.936,222.803,209.738,209.323
0.074,5.103,3.967,3.967,222.776,209.600,209.346
0.076,5.241,3.994,3.994,222.753,209.464,209.358
0.077,5.375,4.020,4.020,222.733,209.332,209.361
0.079,5.504,4.047,4.047,222.717,209.204,209.357
0.080,5.627,4.074,4.074,222.704,209.082,209.348
0.082,5.742,4.106,4.106,222.693,208.968,209.335
0.083,5.848,4.140,4.140,222.685,208.863,209.322
0.085,5.943,4.177,4.177,222.680,208.769,209.310
0.086,6.026,4.213,4.213,222.676,208.687,209.301
0.088,6.096,4.247,4.247,222.674,208.618,209.296
0.089,6.152,4.278,4.278,222.674,208.561,209.295
0.091,6.197,4.304,4.304,222.676,208.516,209.298
0.092,6.231,4.323,4.323,222.678,208.483,209.304
0.094,6.256,4.336,4.336,222.682,208.459,209.312
0.095,6.274,4.343,4.343,222.686,208.445,209.322
0.097,6.287,4.345,4.345,222.691,208.439,209.332
0.098,6.299,4.343,4.343,222.697,208.441,209.343
0.100,6.314,4.338,4.338,222.703,208.449,209.353
0.101,6.332,4.329,4.329,222.709,208.464,209.362
0.103,6.353,4.319,4.319,222.715,208.483,209.369
0.104,6.378,4.308,4.308,222.720,208.507,209.373
0.105,6.405,4.296,4.296,222.726,208.533,209.375
0.107,6.432,4.284,4.284,222.731,208.559,209.375
0.108,6.456,4.273,4.273,222.736,208.583,209.373
0.110,6.474,4.265,4.265,222.741,208.600,209.371
0.111,6.486,4.258,4.258,222.746,208.610,209.369
0.113,6.491,4.255,4.255,222.752,208.609,209.368
0.114,6.507,4.255,4.255,222.757,208.595,209.369
0.116,6.538,4.259,4.259,222.763,208.564,209.371
0.117,6.589,4.266,4.266,222.770,208.514,209.377
0.119,6.662,4.278,4.278,222.777,208.442,209.386
0.120,6.759,4.295,4.295,222.785,208.346,209.400
0.122,6.883,4.316,4.316,222.794,208.224,209.419
0.123,7.031,4.342,4.342,222.803,208.078,209.442
0.125,7.199,4.371,4.371,222.813,207.913,209.469
0.126,7.381,4.403,4.403,222.824,207.733,209.497
0.128,7.571,4.437,4.437,222.834,207.545,209.527
0.129,7.766,4.473,4.473,222.845,207.353,209.557
0.131,7.960,4.508,4.508,222.855,207.162,209.585
0.132,8.148,4.543,4.543,222.865,206.976,209.612
0.134,8.324,4.576,4.576,222.874,206.801,209.635
0.135,8.485,4.608,4.608,222.882,206.642,209.653
0.137,8.624,4.637,4.637,222.890,206.504,209.666
0.138,8.737,4.663,4.663,222.896,206.391,209.673
0.140,8.822,4.685,4.685,222.900,206.306,209.672
0.141,8.881,4.703,4.703,222.904,206.247,209.666
0.143,8.919,4.716,4.716,222.905,206.211,209.656
0.144,8.939,4.725,4.725,222.905,206.195,209.644
0.146,8.951,4.729,4.729,222.903,206.194,209.632
0.147,8.968,4.730,4.730,222.900,206.207,209.621
0.149,8.992,4.728,4.728,222.894,206.229,209.614
0.150,9.021,4.723,4.723,222.886,206.257,209.613
0.152,9.055,4.716,4.716,222.876,206.289,209.618
0.153,9.092,4.707,4.707,222.864,206.321,209.632
0.155,9.133,4.697,4.697,222.849,206.350,209.657
0.156,9.179,4.686,4.686,222.832,206.372,209.694
0.158,9.234,4.675,4.675,222.812,206.385,209.743
0.159,9.296,4.664,4.664,222.791,206.388,209.801
0.160,9.365,4.654,4.654,222.768,206.380,209.866
0.162,9.441,4.644,4.644,222.744,206.359,209.935
0.163,9.525,4.635,4.635,222.720,206.322,210.006
0.165,9.615,4.626,4.626,222.695,206.270,210.076
0.166,9.715,4.615,4.615,222.671,206.200,210.143
0.168,9.826,4.600,4.600,222.647,206.111,210.205
0.169,9.950,4.579,4.579,222.625,206.001,210.258
0.171,10.090,4.553,4.553,222.604,205.870,210.300
0.172,10.249,4.518,4.518,222.586,205.714,210.330
0.174,10.430,4.476,4.476,222.569,205.535,210.344
0.175,10.631,4.430,4.430,222.555,205.334,210.345
0.177,10.849,4.382,4.382,222.541,205.117,210.336
0.178,11.080,4.337,4.337,222.527,204.887,210.318
0.180,11.319,4.297,4.297,222.511,204.649,210.296
0.181,11.564,4.266,4.266,222.494,204.407,210.271
0.183,11.808,4.247,4.247,222.474,204.164,210.247
0.184,12.048,4.239,4.239,222.450,203.927,210.225
0.186,12.280,4.240,4.240,222.421,203.697,210.208
0.187,12.499,4.246,4.246,222.386,203.481,210.200
0.189,12.703,4.257,4.257,222.344,203.281,210.203
0.190,12.888,4.268,4.268,222.295,203.103,210.219
0.192,13.056,4.277,4.277,222.239,202.948,210.250
0.193,13.210,4.282,4.282,222.177,202.814,210.293
0.195,13.352,4.282,4.282,222.111,202.700,210.346
0.196,13.485,4.279,4.279,222.042,202.604,210.408
0.198,13.610,4.275,4.275,221.973,202.524,210.475
0.199,13.729,4.269,4.269,221.906,202.458,210.546
0.201,13.840,4.263,4.263,221.841,202.405,210.620
0.202,13.944,4.259,4.259,221.781,202.361,210.693
0.204,14.039,4.256,4.256,221.728,202.327,210.763
0.205,14.123,4.255,4.255,221.683,202.300,210.830
0.207,14.196,4.256,4.256,221.648,202.277,210.889
0.208,14.255,4.257,4.257,221.625,202.258,210.940
0.210,14.305,4.260,4.260,221.611,202.239,210.984
0.211,14.349,4.262,4.262,221.603,202.218,211.022
0.212,14.394,4.265,4.265,221.598,202.190,211.057
0.214,14.444,4.268,4.268,221.592,202.154,211.091
0.215,14.505,4.272,4.272,221.581,202.105,211.125
0.217,14.581,4.280,4.280,221.562,202.041,211.162
0.218,14.679,4.293,4.293,221.531,201.959,211.205
0.220,14.803,4.312,4.312,221.486,201.855,211.254
0.221,14.958,4.341,4.341,221.422,201.726,211.313
0.223,15.150,4.379,4.379,221.335,201.569,211.383
0.224,15.385,4.428,4.428,221.223,201.381,211.467
0.226,15.662,4.489,4.489,221.084,201.162,211.565
0.227,15.976,4.562,4.562,220.922,200.916,211.675
0.229,16.317,4.648,4.648,220.743,200.651,211.793
0.230,16.676,4.748,4.748,220.553,200.373,211.916
0.232,17.043,4.861,4.861,220.356,200.089,212.042
0.233,17.410,4.988,4.988,220.159,199.806,212.166
0.235,17.768,5.124,5.124,219.966,199.529,212.286
0.236,18.107,5.264,5.264,219.784,199.266,212.398
0.238,18.419,5.400,5.400,219.617,199.024,212.499
0.239,18.694,5.526,5.526,219.470,198.808,212.587
0.241,18.923,5.634,5.634,219.350,198.626,212.658
0.242,19.098,5.718,5.718,219.262,198.484,212.708
0.244,19.219,5.773,5.773,219.204,198.382,212.739
0.245,19.293,5.800,5.800,219.174,198.315,212.753
0.247,19.331,5.806,5.807,219.165,198.279,212.754
0.248,19.348,5.798,5.798,219.174,198.267,212.745
0.250,19.374,5.780,5.780,219.194,198.275,212.731
0.251,19.414,5.759,5.759,219.222,198.298,212.713
0.253,19.462,5.741,5.741,219.253,198.330,212.697
0.254,19.510,5.730,5.730,219.282,198.367,212.684
0.256,19.553,5.728,5.728,219.304,198.403,212.679
0.257,19.585,5.732,5.732,219.314,198.433,212.685
0.259,19.613,5.743,5.743,219.307,198.452,212.705
0.260,19.659,5.760,5.760,219.280,198.456,212.742
0.262,19.730,5.782,5.782,219.235,198.445,212.794
0.263,19.823,5.809,5.809,219.174,198.421,212.861
0.264,19.935,5.840,5.840,219.101,198.386,212.938
0.266,20.062,5.875,5.875,219.018,198.342,213.024
0.267,20.201,5.914,5.914,218.930,198.290,213.118
0.269,20.347,5.956,5.956,218.838,198.232,213.215
0.270,20.497,6.003,6.003,218.746,198.169,213.315
0.272,20.645,6.053,6.053,218.658,198.104,213.415
0.273,20.789,6.107,6.107,218.575,198.039,213.513
0.275,20.923,6.164,6.164,218.502,197.974,213.605
0.276,21.045,6.221,6.221,218.441,197.912,213.692
0.278,21.153,6.276,6.275,218.395,197.854,213.770
0.279,21.249,6.326,6.326,218.360,197.799,213.840
0.281,21.335,6.370,6.370,218.336,197.747,213.903
0.282,21.412,6.404,6.404,218.320,197.697,213.960
0.284,21.482,6.428,6.428,218.312,197.649,214.010
0.285,21.546,6.441,6.442,218.309,197.602,214.055
0.287,21.607,6.447,6.447,218.310,197.556,214.094
0.288,21.665,6.448,6.448,218.312,197.510,214.128
0.290,21.720,6.446,6.447,218.315,197.464,214.158
0.291,21.774,6.445,6.446,218.317,197.416,214.185
0.293,21.828,6.448,6.448,218.315,197.368,214.208
0.294,21.883,6.455,6.455,218.308,197.317,214.228
0.296,21.938,6.468,6.467,218.297,197.266,214.246
0.297,21.994,6.483,6.481,218.283,197.214,214.262
0.299,22.049,6.499,6.497,218.266,197.164,214.278
0.300,22.102,6.513,6.512,218.249,197.117,214.293
0.302,22.152,6.525,6.524,218.231,197.073,214.309
0.303,22.198,6.531,6.531,218.214,197.034,214.326
0.305,22.239,6.531,6.533,218.199,197.001,214.345
0.306,22.275,6.525,6.529,218.187,196.975,214.367
0.308,22.306,6.515,6.521,218.179,196.958,214.392
0.309,22.335,6.501,6.509,218.177,196.951,214.420
0.311,22.369,6.487,6.494,218.182,196.954,214.454
0.312,22.411,6.472,6.476,218.193,196.968,214.492
0.314,22.459,6.459,6.457,218.209,196.987,214.533
0.315,22.509,6.447,6.437,218.229,197.006,214.574
0.316,22.555,6.434,6.415,218.251,197.017,214.613
0.318,22.597,6.418,6.393,218.274,197.016,214.648
0.319,22.637,6.397,6.369,218.294,196.996,214.677
0.321,22.689,6.369,6.345,218.311,196.951,214.697
0.322,22.766,6.331,6.320,218.323,196.876,214.706
0.324,22.878,6.282,6.294,218.328,196.764,214.702
0.325,23.034,6.220,6.266,218.324,196.609,214.682
0.327,23.241,6.148,6.235,218.310,196.406,214.644
0.328,23.506,6.069,6.197,218.283,196.149,214.587
0.330,23.827,5.984,6.153,218.244,195.840,214.510
0.331,24.194,5.897,6.098,218.196,195.488,214.417
0.333,24.595,5.809,6.032,218.139,195.105,214.311
0.334,25.021,5.723,5.953,218.076,194.700,214.196
0.336,25.461,5.639,5.864,218.008,194.283,214.074
0.337,25.905,5.559,5.770,217.938,193.863,213.949
0.339,26.340,5.483,5.677,217.867,193.452,213.824
0.340,26.758,5.411,5.590,217.798,193.058,213.703
0.342,27.147,5.344,5.515,217.732,192.692,213.588
0.343,27.496,5.283,5.458,217.672,192.365,213.483
0.345,27.796,5.228,5.423,217.618,192.085,213.391
0.346,28.037,5.179,5.408,217.573,191.861,213.315
0.348,28.222,5.139,5.407,217.537,191.690,213.254
0.349,28.357,5.108,5.417,217.508,191.566,213.207
0.351,28.449,5.087,5.431,217.487,191.484,213.172
0.352,28.504,5.076,5.446,217.472,191.437,213.148
0.354,28.528,5.078,5.456,217.462,191.421,213.133
0.355,28.539,5.092,5.458,217.457,191.428,213.126
0.357,28.565,5.115,5.452,217.457,191.454,213.125
0.358,28.604,5.144,5.442,217.459,191.493,213.128
0.360,28.650,5.175,5.429,217.465,191.538,213.135
0.361,28.698,5.206,5.415,217.472,191.584,213.144
0.363,28.740,5.233,5.403,217.481,191.625,213.153
0.364,28.776,5.253,5.393,217.490,191.658,213.162
0.366,28.803,5.263,5.389,217.499,191.682,213.169
0.367,28.823,5.266,5.387,217.507,191.699,213.175
0.368,28.836,5.263,5.389,217.514,191.709,213.180
0.370,28.843,5.257,5.391,217.519,191.712,213.183
0.371,28.847,5.248,5.395,217.522,191.709,213.185
0.373,28.856,5.238,5.397,217.522,191.700,213.184
0.374,28.870,5.230,5.398,217.519,191.686,213.182
0.376,28.891,5.223,5.396,217.511,191.668,213.177
0.377,28.918,5.218,5.392,217.499,191.645,213.169
0.379,28.952,5.212,5.385,217.481,191.618,213.160
0.380,28.992,5.206,5.376,217.458,191.588,213.147
0.382,29.038,5.199,5.364,217.429,191.555,213.131
0.383,29.091,5.188,5.350,217.395,191.519,213.113
0.385,29.150,5.175,5.333,217.356,191.480,213.093
0.386,29.214,5.157,5.313,217.314,191.437,213.071
0.388,29.283,5.137,5.290,217.269,191.391,213.046
0.389,29.356,5.113,5.263,217.222,191.341,213.020
0.391,29.433,5.085,5.234,217.172,191.288,212.993
0.392,29.514,5.055,5.201,217.121,191.232,212.965
0.394,29.599,5.021,5.164,217.070,191.172,212.935
0.395,29.686,4.985,5.123,217.018,191.109,212.905
0.397,29.775,4.947,5.080,216.968,191.041,212.875
0.398,29.867,4.909,5.036,216.918,190.971,212.844
0.400,29.957,4.873,4.993,216.871,190.901,212.813
0.401,30.044,4.840,4.951,216.826,190.832,212.783
0.403,30.124,4.811,4.913,216.786,190.769,212.754
0.404,30.195,4.789,4.880,216.752,190.714,212.726
0.406,30.253,4.775,4.854,216.723,190.670,212.701
0.407,30.297,4.768,4.833,216.702,190.640,212.677
0.409,30.325,4.768,4.820,216.688,190.627,212.656
0.410,30.344,4.776,4.813,216.684,190.633,212.639
0.412,30.377,4.790,4.813,216.690,190.661,212.625
0.413,30.434,4.810,4.820,216.707,190.715,212.615
0.415,30.520,4.837,4.834,216.736,190.796,212.609
0.416,30.632,4.868,4.854,216.775,190.901,212.607
0.418,30.757,4.899,4.876,216.819,191.018,212.609
0.419,30.882,4.923,4.896,216.864,191.135,212.612
0.421,30.996,4.937,4.910,216.905,191.240,212.616
0.422,31.085,4.935,4.913,216.937,191.323,212.620
0.423,31.137,4.912,4.903,216.955,191.372,212.622
0.425,31.139,4.863,4.873,216.956,191.374,212.622
0.426,31.199,4.789,4.826,216.933,191.319,212.618
0.428,31.333,4.697,4.765,216.883,191.195,212.610
0.429,31.555,4.595,4.694,216.800,190.990,212.596
0.431,31.876,4.490,4.617,216.680,190.693,212.576
0.432,32.306,4.390,4.540,216.519,190.295,212.547
0.434,32.831,4.302,4.466,216.323,189.809,212.512
0.435,33.433,4.234,4.399,216.098,189.252,212.470
0.437,34.093,4.188,4.346,215.852,188.642,212.422
0.438,34.792,4.165,4.312,215.591,187.996,212.368
0.440,35.510,4.167,4.304,215.324,187.332,212.310
0.441,36.228,4.193,4.327,215.056,186.668,212.249
0.443,36.928,4.244,4.387,214.796,186.022,212.184
0.444,37.589,4.322,4.490,214.550,185.411,212.117
0.446,38.194,4.425,4.639,214.326,184.854,212.048
0.447,38.723,4.548,4.824,214.131,184.367,211.978
0.449,39.158,4.682,5.028,213.972,183.968,211.908
0.450,39.491,4.819,5.233,213.851,183.666,211.839
0.452,39.734,4.951,5.425,213.766,183.449,211.770
0.453,39.901,5.070,5.585,213.712,183.306,211.704
0.455,40.006,5.167,5.699,213.683,183.226,211.641
0.456,40.072,5.238,5.754,213.677,183.198,211.582
0.458,40.129,5.285,5.761,213.688,183.210,211.527
0.459,40.197,5.313,5.731,213.713,183.251,211.478
0.461,40.277,5.326,5.677,213.746,183.308,211.435
0.462,40.359,5.330,5.612,213.783,183.372,211.399
0.464,40.433,5.329,5.547,213.821,183.430,211.372
0.465,40.488,5.329,5.495,213.853,183.471,211.353
0.467,40.517,5.331,5.463,213.877,183.484,211.344
0.468,40.539,5.336,5.449,213.893,183.469,211.344
0.470,40.579,5.345,5.450,213.900,183.430,211.353
0.471,40.640,5.357,5.463,213.902,183.372,211.369
0.473,40.716,5.372,5.485,213.899,183.299,211.391
0.474,40.803,5.391,5.512,213.894,183.217,211.418
0.475,40.896,5.413,5.543,213.888,183.129,211.450
0.477,40.991,5.437,5.575,213.882,183.042,211.486
0.478,41.082,5.461,5.607,213.879,182.958,211.524
0.480,41.167,5.482,5.637,213.879,182.884,211.563
0.481,41.240,5.499,5.665,213.885,182.823,211.604
0.483,41.299,5.509,5.690,213.897,182.781,211.643
0.484,41.347,5.508,5.710,213.918,182.760,211.681
0.486,41.391,5.497,5.725,213.943,182.756,211.717
0.487,41.434,5.475,5.734,213.971,182.764,211.749
0.489,41.476,5.448,5.738,213.999,182.779,211.776
0.490,41.513,5.419,5.737,214.024,182.797,211.797
0.492,41.540,5.393,5.732,214.043,182.812,211.810
0.493,41.554,5.373,5.722,214.054,182.818,211.815
0.495,41.561,5.364,5.709,214.053,182.813,211.810
0.496,41.593,5.369,5.693,214.038,182.789,211.795
0.498,41.656,5.389,5.677,214.006,182.743,211.767
0.499,41.755,5.422,5.665,213.954,182.669,211.726
0.501,41.896,5.466,5.662,213.880,182.562,211.671
0.502,42.078,5.522,5.671,213.785,182.424,211.603
0.504,42.293,5.587,5.696,213.672,182.258,211.525
0.505,42.534,5.661,5.741,213.545,182.070,211.442
0.507,42.794,5.741,5.808,213.410,181.866,211.356
0.508,43.065,5.823,5.888,213.269,181.650,211.272
0.510,43.339,5.903,5.974,213.127,181.429,211.193
0.511,43.609,5.976,6.057,212.989,181.207,211.124
0.513,43.869,6.037,6.128,212.859,180.991,211.066
0.514,44.110,6.082,6.179,212.740,180.784,211.025
0.516,44.328,6.105,6.200,212.637,180.593,211.004
0.517,44.518,6.106,6.189,212.555,180.423,211.007
0.519,44.677,6.090,6.155,212.496,180.278,211.036
0.520,44.813,6.063,6.107,212.459,180.158,211.088
0.522,44.936,6.030,6.055,212.441,180.061,211.161
0.523,45.052,5.998,6.006,212.440,179.985,211.250
0.525,45.168,5.972,5.972,212.451,179.928,211.350
0.526,45.285,5.957,5.960,212.474,179.889,211.458
0.527,45.403,5.956,5.972,212.503,179.864,211.570
0.529,45.520,5.963,6.001,212.537,179.853,211.681
0.530,45.633,5.975,6.041,212.573,179.853,211.788
0.532,45.737,5.987,6.086,212.607,179.863,211.886
0.533,45.829,5.997,6.128,212.637,179.880,211.971
0.535,45.904,5.999,6.162,212.659,179.902,212.039
0.536,45.962,5.990,6.181,212.673,179.927,212.089
0.538,46.005,5.971,6.184,212.679,179.953,212.124
0.539,46.037,5.947,6.176,212.680,179.976,212.146
0.541,46.060,5.922,6.160,212.677,179.995,212.158
0.542,46.074,5.899,6.140,212.672,180.007,212.165
0.544,46.081,5.884,6.118,212.666,180.008,212.168
0.545,46.094,5.880,6.099,212.660,179.997,212.171
0.547,46.122,5.890,6.085,212.658,179.970,212.178
0.548,46.169,5.912,6.075,212.660,179.925,212.191
0.550,46.239,5.941,6.068,212.668,179.860,212.214
0.551,46.336,5.972,6.062,212.684,179.771,212.249
0.553,46.464,6.001,6.056,212.708,179.656,212.300
0.554,46.621,6.024,6.046,212.742,179.518,212.366
0.556,46.801,6.035,6.032,212.783,179.361,212.444
0.557,46.998,6.032,6.013,212.829,179.190,212.532
0.559,47.208,6.017,5.990,212.880,179.010,212.626
0.560,47.423,5.994,5.964,212.934,178.825,212.725
0.562,47.640,5.964,5.938,212.988,178.641,212.824
0.563,47.850,5.931,5.912,213.043,178.463,212.922
0.565,48.050,5.897,5.889,213.095,178.294,213.015
0.566,48.233,5.867,5.871,213.144,178.140,213.101
0.568,48.394,5.841,5.857,213.189,178.006,213.177
0.569,48.526,5.819,5.848,213.227,177.897,213.241
0.571,48.626,5.801,5.843,213.257,177.815,213.290
0.572,48.698,5.786,5.841,213.281,177.757,213.327
0.574,48.747,5.774,5.842,213.299,177.720,213.353
0.575,48.777,5.764,5.845,213.313,177.699,213.371
0.577,48.795,5.756,5.849,213.322,177.691,213.382
0.578,48.805,5.750,5.855,213.328,177.692,213.391
0.579,48.815,5.744,5.860,213.333,177.697,213.397
0.581,48.825,5.738,5.865,213.337,177.702,213.405
0.582,48.836,5.732,5.869,213.340,177.704,213.416
0.584,48.854,5.725,5.871,213.345,177.698,213.432
0.585,48.884,5.717,5.870,213.351,177.681,213.456
0.587,48.932,5.707,5.867,213.361,177.648,213.490
0.588,48.999,5.695,5.861,213.373,177.600,213.534
0.590,49.080,5.681,5.851,213.388,177.539,213.586
0.591,49.172,5.667,5.837,213.404,177.470,213.644
0.593,49.270,5.652,5.818,213.421,177.396,213.706
0.594,49.371,5.638,5.795,213.438,177.320,213.771
0.596,49.470,5.623,5.766,213.455,177.248,213.836
0.597,49.564,5.609,5.733,213.470,177.181,213.900
0.599,49.647,5.596,5.696,213.483,177.124,213.960
0.600,49.718,5.586,5.660,213.493,177.080,214.014
0.602,49.772,5.578,5.627,213.500,177.054,214.061
0.603,49.810,5.573,5.600,213.503,177.048,214.098
0.605,49.841,5.572,5.582,213.501,177.066,214.125
0.606,49.881,5.576,5.576,213.495,177.101,214.141
