"T","Distance","Radius","FreeRadius","X","Y","Z"
0.000,0.000,2.785,2.785,240.289,238.419,242.211
0.001,0.246,2.903,2.903,240.109,238.401,242.378
0.002,0.491,3.020,3.020,239.930,238.383,242.543
0.004,0.732,3.137,3.137,239.751,238.366,242.703
0.005,0.967,3.254,3.254,239.574,238.350,242.857
0.006,1.194,3.370,3.370,239.399,238.336,243.001
0.007,1.413,3.485,3.485,239.226,238.323,243.135
0.008,1.621,3.599,3.599,239.056,238.312,243.254
0.010,1.817,3.712,3.712,238.889,238.304,243.358
0.011,2.001,3.823,3.823,238.727,238.298,243.444
0.012,2.173,3.933,3.933,238.569,238.295,243.509
0.013,2.332,4.040,4.040,238.415,238.296,243.553
0.014,2.482,4.142,4.142,238.268,238.300,243.578
0.015,2.624,4.240,4.240,238.126,238.306,243.585
0.017,2.758,4.331,4.331,237.992,238.316,243.578
0.018,2.887,4.415,4.415,237.865,238.327,243.558
0.019,3.010,4.492,4.492,237.746,238.341,243.529
0.020,3.127,4.559,4.559,237.637,238.357,243.493
0.021,3.236,4.616,4.616,237.537,238.374,243.452
0.023,3.337,4.663,4.663,237.448,238.393,243.408
0.024,3.429,4.702,4.702,237.369,238.413,243.365
0.025,3.511,4.733,4.733,237.302,238.434,243.324
0.026,3.582,4.756,4.756,237.244,238.454,243.286
0.027,3.645,4.771,4.771,237.196,238.473,243.251
0.029,3.699,4.780,4.780,237.154,238.489,243.221
0.030,3.744,4.783,4.783,237.118,238.501,243.196
0.031,3.781,4.781,4.781,237.087,238.509,243.177
0.032,3.812,4.774,4.774,237.059,238.510,243.165
0.033,3.839,4.764,4.764,237.033,238.504,243.160
0.035,3.868,4.751,4.751,237.008,238.490,243.163
0.036,3.905,4.737,4.737,236.982,238.466,243.175
0.037,3.953,4.721,4.721,236.955,238.433,243.195
0.038,4.008,4.706,4.706,236.927,238.393,243.223
0.039,4.071,4.693,4.693,236.900,238.348,243.255
0.041,4.136,4.681,4.681,236.873,238.299,243.290
0.042,4.203,4.673,4.673,236.848,238.249,243.326
0.043,4.267,4.667,4.667,236.825,238.200,243.361
0.044,4.327,4.664,4.664,236.806,238.154,243.394
0.045,4.380,4.663,4.663,236.790,238.113,243.423
0.046,4.422,4.662,4.662,236.778,238.079,243.445
0.048,4.451,4.664,4.664,236.772,238.054,243.459
0.049,4.468,4.665,4.665,236.770,238.038,243.465
0.050,4.477,4.667,4.667,236.771,238.030,243.466
0.051,4.482,4.669,4.669,236.774,238.026,243.464
0.052,4.485,4.671,4.671,236.776,238.026,243.461
0.054,4.487,4.672,4.672,236.775,238.027,243.460
0.055,4.493,4.674,4.674,236.770,238.028,243.463
0.056,4.507,4.674,4.674,236.760,238.026,243.473
0.057,4.533,4.675,4.675,236.742,238.020,243.491
0.058,4.576,4.675,4.675,236.714,238.008,243.521
0.060,4.637,4.675,4.675,236.676,237.987,243.564
0.061,4.716,4.675,4.675,236.628,237.959,243.619
0.062,4.808,4.674,4.674,236.571,237.924,243.684
0.063,4.910,4.673,4.673,236.510,237.884,243.755
0.064,5.018,4.672,4.672,236.445,237.841,243.829
0.066,5.127,4.670,4.670,236.379,237.795,243.903
0.067,5.233,4.667,4.667,236.315,237.748,243.973
0.068,5.332,4.663,4.663,236.255,237.702,244.037
0.069,5.421,4.659,4.659,236.200,237.658,244.092
0.070,5.495,4.653,4.653,236.154,237.617,244.133
0.072,5.551,4.647,4.647,236.119,237.581,244.159
0.073,5.594,4.639,4.639,236.093,237.550,244.170
0.074,5.629,4.630,4.630,236.073,237.521,244.168
0.075,5.663,4.619,4.619,236.056,237.495,244.155
0.076,5.700,4.607,4.607,236.041,237.468,244.133
0.077,5.743,4.592,4.592,236.023,237.442,244.104
0.079,5.792,4.576,4.576,236.001,237.413,244.071
0.080,5.849,4.557,4.557,235.972,237.382,244.035
0.081,5.914,4.536,4.536,235.932,237.346,243.998
0.082,5.989,4.512,4.512,235.879,237.305,243.963
0.083,6.078,4.487,4.487,235.811,237.257,243.931
0.085,6.179,4.460,4.460,235.730,237.204,243.903
0.086,6.289,4.434,4.434,235.640,237.147,243.877
0.087,6.404,4.407,4.407,235.544,237.086,243.854
0.088,6.521,4.382,4.382,235.447,237.024,243.833
0.089,6.637,4.359,4.359,235.351,236.962,243.813
0.091,6.748,4.338,4.338,235.261,236.902,243.795
0.092,6.850,4.321,4.321,235.179,236.843,243.777
0.093,6.939,4.307,4.307,235.110,236.789,243.759
0.094,7.014,4.296,4.296,235.058,236.739,243.741
0.095,7.073,4.287,4.287,235.023,236.696,243.722
0.097,7.122,4.282,4.282,235.000,236.656,243.704
0.098,7.166,4.278,4.278,234.984,236.619,243.686
0.099,7.212,4.277,4.277,234.966,236.580,243.670
0.100,7.263,4.277,4.277,234.940,236.538,243.656
0.101,7.326,4.279,4.279,234.899,236.492,243.646
0.103,7.409,4.282,4.282,234.837,236.437,243.639
0.104,7.521,4.285,4.285,234.745,236.372,243.637
0.105,7.670,4.288,4.288,234.618,236.294,243.641
0.106,7.864,4.290,4.290,234.449,236.202,243.651
0.107,8.105,4.290,4.290,234.234,236.094,243.667
0.108,8.385,4.288,4.288,233.982,235.972,243.688
0.110,8.696,4.282,4.282,233.701,235.840,243.712
0.111,9.028,4.273,4.273,233.401,235.701,243.737
0.112,9.371,4.260,4.260,233.091,235.558,243.762
0.113,9.715,4.243,4.243,232.779,235.414,243.784
0.114,10.050,4.224,4.224,232.476,235.271,243.802
0.116,10.367,4.206,4.206,232.190,235.134,243.813
0.117,10.658,4.189,4.189,231.931,235.004,243.817
0.118,10.911,4.175,4.175,231.706,234.886,243.812
0.119,11.124,4.165,4.165,231.522,234.781,243.797
0.120,11.303,4.162,4.162,231.371,234.688,243.774
0.122,11.452,4.167,4.167,231.249,234.607,243.746
0.123,11.577,4.181,4.181,231.149,234.537,243.716
0.124,11.683,4.202,4.202,231.066,234.479,243.686
0.125,11.774,4.229,4.229,230.993,234.431,243.659
0.126,11.855,4.261,4.261,230.925,234.392,243.638
0.128,11.931,4.296,4.296,230.856,234.364,243.626
0.129,12.011,4.333,4.333,230.779,234.343,243.624
0.130,12.102,4.371,4.371,230.690,234.332,243.635
0.131,12.210,4.409,4.409,230.584,234.327,243.660
0.132,12.336,4.445,4.445,230.464,234.330,243.697
0.133,12.478,4.481,4.481,230.330,234.339,243.744
0.135,12.634,4.519,4.519,230.184,234.354,243.797
0.136,12.804,4.562,4.562,230.026,234.373,243.854
0.137,12.983,4.613,4.613,229.858,234.396,243.914
0.138,13.172,4.673,4.673,229.681,234.423,243.973
0.139,13.367,4.745,4.745,229.496,234.453,244.030
0.141,13.568,4.831,4.831,229.305,234.484,244.082
0.142,13.773,4.934,4.934,229.108,234.517,244.126
0.143,13.979,5.054,5.054,228.907,234.550,244.163
0.144,14.187,5.184,5.184,228.704,234.585,244.191
0.145,14.394,5.319,5.319,228.501,234.620,244.211
0.147,14.600,5.455,5.455,228.299,234.656,244.223
0.148,14.802,5.584,5.584,228.100,234.693,244.228
0.149,14.999,5.701,5.701,227.907,234.730,244.225
0.150,15.190,5.801,5.801,227.720,234.769,244.215
0.151,15.373,5.879,5.879,227.542,234.807,244.199
0.153,15.547,5.929,5.929,227.374,234.847,244.175
0.154,15.710,5.954,5.954,227.219,234.887,244.146
0.155,15.862,5.958,5.958,227.076,234.927,244.110
0.156,16.002,5.944,5.944,226.948,234.966,244.070
0.157,16.130,5.918,5.918,226.833,235.003,244.028
0.159,16.244,5.884,5.884,226.734,235.037,243.983
0.160,16.344,5.845,5.845,226.650,235.069,243.939
0.161,16.429,5.806,5.806,226.582,235.096,243.895
0.162,16.499,5.771,5.771,226.531,235.118,243.854
0.163,16.552,5.742,5.742,226.496,235.134,243.816
0.164,16.590,5.719,5.719,226.480,235.143,243.784
0.166,16.616,5.701,5.701,226.481,235.144,243.757
0.167,16.642,5.686,5.686,226.497,235.140,243.737
0.168,16.671,5.674,5.674,226.520,235.131,243.723
0.169,16.701,5.665,5.665,226.546,235.120,243.713
0.170,16.728,5.656,5.656,226.570,235.108,243.709
0.172,16.746,5.648,5.648,226.585,235.097,243.709
0.173,16.754,5.640,5.640,226.585,235.090,243.712
0.174,16.775,5.631,5.631,226.566,235.087,243.719
0.175,16.820,5.623,5.623,226.522,235.092,243.730
0.176,16.898,5.615,5.615,226.447,235.105,243.742
0.178,17.011,5.607,5.607,226.337,235.128,243.757
0.179,17.156,5.601,5.601,226.197,235.160,243.773
0.180,17.325,5.595,5.595,226.033,235.198,243.790
0.181,17.511,5.591,5.591,225.853,235.240,243.807
0.182,17.707,5.589,5.589,225.662,235.284,243.824
0.184,17.905,5.589,5.589,225.469,235.327,243.840
0.185,18.099,5.589,5.589,225.280,235.367,243.855
0.186,18.281,5.590,5.590,225.102,235.401,243.867
0.187,18.443,5.591,5.591,224.942,235.428,243.877
0.188,18.580,5.591,5.591,224.806,235.444,243.883
0.190,18.687,5.589,5.589,224.700,235.450,243.886
0.191,18.766,5.585,5.585,224.621,235.445,243.885
0.192,18.823,5.579,5.579,224.566,235.432,243.882
0.193,18.863,5.569,5.569,224.531,235.413,243.876
0.194,18.893,5.556,5.556,224.513,235.389,243.869
0.195,18.919,5.542,5.542,224.509,235.364,243.862
0.197,18.947,5.527,5.527,224.515,235.339,243.854
0.198,18.974,5.512,5.512,224.528,235.316,243.846
0.199,19.000,5.498,5.498,224.544,235.296,243.840
0.200,19.021,5.485,5.485,224.559,235.283,243.835
0.201,19.036,5.475,5.475,224.572,235.276,243.832
0.203,19.045,5.468,5.468,224.581,235.275,243.830
0.204,19.049,5.464,5.464,224.584,235.276,243.829
0.205,19.052,5.462,5.463,224.582,235.278,243.829
0.206,19.062,5.461,5.461,224.572,235.278,243.830
0.207,19.080,5.459,5.460,224.554,235.275,243.830
0.209,19.109,5.456,5.456,224.527,235.267,243.829
0.210,19.149,5.449,5.450,224.490,235.250,243.827
0.211,19.205,5.439,5.439,224.442,235.223,243.824
0.212,19.277,5.423,5.423,224.381,235.184,243.819
0.213,19.367,5.401,5.401,224.308,235.132,243.811
0.215,19.472,5.373,5.373,224.224,235.069,243.801
0.216,19.592,5.341,5.340,224.130,234.996,243.789
0.217,19.724,5.305,5.304,224.027,234.915,243.774
0.218,19.867,5.266,5.265,223.916,234.827,243.757
0.219,20.018,5.225,5.224,223.798,234.734,243.737
0.221,20.176,5.183,5.182,223.675,234.637,243.714
0.222,20.338,5.140,5.140,223.548,234.539,243.689
0.223,20.504,5.098,5.098,223.418,234.441,243.661
0.224,20.670,5.057,5.059,223.286,234.344,243.630
0.225,20.838,5.019,5.021,223.153,234.250,243.596
0.226,21.007,4.984,4.986,223.016,234.156,243.559
0.228,21.180,4.952,4.955,222.876,234.064,243.518
0.229,21.357,4.924,4.928,222.732,233.971,243.473
0.230,21.541,4.902,4.905,222.582,233.878,243.423
0.231,21.732,4.886,4.888,222.425,233.783,243.368
0.232,21.932,4.877,4.877,222.261,233.687,243.308
0.234,22.141,4.874,4.871,222.089,233.587,243.241
0.235,22.362,4.878,4.872,221.907,233.485,243.169
0.236,22.596,4.885,4.876,221.715,233.378,243.090
0.237,22.839,4.896,4.884,221.514,233.268,243.005
0.238,23.088,4.907,4.895,221.310,233.158,242.917
0.240,23.336,4.918,4.907,221.106,233.048,242.828
0.241,23.579,4.926,4.919,220.907,232.942,242.740
0.242,23.811,4.931,4.931,220.716,232.841,242.655
0.243,24.027,4.931,4.941,220.538,232.747,242.575
0.244,24.222,4.926,4.950,220.377,232.663,242.502
0.246,24.392,4.918,4.957,220.238,232.590,242.439
0.247,24.529,4.907,4.963,220.125,232.531,242.387
0.248,24.631,4.897,4.966,220.040,232.488,242.350
0.249,24.699,4.887,4.969,219.984,232.460,242.325
0.250,24.737,4.880,4.970,219.952,232.445,242.313
0.251,24.751,4.878,4.970,219.939,232.440,242.311
0.253,24.760,4.881,4.968,219.941,232.445,242.319
0.254,24.782,4.891,4.966,219.954,232.456,242.334
0.255,24.816,4.904,4.962,219.973,232.472,242.356
0.256,24.855,4.920,4.955,219.994,232.490,242.383
0.257,24.896,4.935,4.946,220.013,232.510,242.414
0.259,24.936,4.947,4.933,220.026,232.527,242.447
0.260,24.973,4.953,4.916,220.028,232.542,242.481
0.261,25.010,4.951,4.895,220.019,232.553,242.516
0.262,25.050,4.939,4.868,219.998,232.562,242.549
0.263,25.096,4.914,4.836,219.966,232.570,242.580
0.265,25.148,4.877,4.799,219.922,232.576,242.609
0.266,25.209,4.831,4.759,219.867,232.582,242.634
0.267,25.278,4.779,4.716,219.802,232.589,242.654
0.268,25.357,4.723,4.673,219.724,232.596,242.669
0.269,25.446,4.667,4.632,219.636,232.606,242.677
0.271,25.546,4.614,4.592,219.537,232.618,242.678
0.272,25.657,4.566,4.557,219.427,232.634,242.671
0.273,25.778,4.526,4.527,219.309,232.652,242.658
0.274,25.905,4.495,4.504,219.184,232.673,242.641
0.275,26.037,4.473,4.485,219.055,232.695,242.623
0.277,26.171,4.455,4.468,218.925,232.719,242.605
0.278,26.304,4.441,4.453,218.795,232.744,242.589
0.279,26.433,4.428,4.438,218.669,232.770,242.579
0.280,26.556,4.413,4.420,218.549,232.795,242.575
0.281,26.672,4.394,4.397,218.436,232.820,242.581
0.282,26.778,4.368,4.369,218.334,232.844,242.599
0.284,26.877,4.335,4.334,218.243,232.867,242.629
0.285,26.970,4.294,4.291,218.162,232.889,242.670
0.286,27.061,4.247,4.245,218.089,232.911,242.720
0.287,27.152,4.198,4.196,218.021,232.933,242.776
0.288,27.243,4.149,4.147,217.956,232.955,242.836
0.290,27.336,4.102,4.101,217.892,232.979,242.899
0.291,27.430,4.059,4.059,217.826,233.005,242.961
0.292,27.525,4.024,4.024,217.756,233.033,243.020
0.293,27.624,3.998,3.998,217.680,233.064,243.074
0.294,27.726,3.982,3.981,217.595,233.098,243.121
0.296,27.835,3.975,3.973,217.501,233.136,243.159
0.297,27.950,3.973,3.971,217.398,233.176,243.191
0.298,28.071,3.976,3.973,217.288,233.218,243.217
0.299,28.196,3.981,3.977,217.173,233.261,243.241
0.300,28.325,3.985,3.981,217.054,233.303,243.263
0.302,28.455,3.986,3.983,216.932,233.345,243.286
0.303,28.586,3.982,3.981,216.810,233.384,243.311
0.304,28.716,3.971,3.973,216.688,233.420,243.341
0.305,28.844,3.954,3.961,216.569,233.452,243.376
0.306,28.970,3.935,3.946,216.454,233.479,243.419
0.308,29.094,3.916,3.931,216.343,233.500,243.470
0.309,29.215,3.900,3.918,216.237,233.517,243.525
0.310,29.332,3.892,3.909,216.134,233.531,243.580
0.311,29.445,3.892,3.907,216.035,233.540,243.633
0.312,29.551,3.906,3.913,215.940,233.548,243.679
0.313,29.651,3.935,3.931,215.847,233.553,243.715
0.315,29.744,3.981,3.962,215.757,233.558,243.738
0.316,29.832,4.038,4.003,215.669,233.561,243.743
0.317,29.919,4.104,4.053,215.583,233.566,243.728
0.318,30.012,4.173,4.111,215.499,233.571,243.690
0.319,30.117,4.241,4.176,215.414,233.578,243.628
0.321,30.233,4.305,4.245,215.328,233.587,243.551
0.322,30.360,4.358,4.317,215.237,233.598,243.463
0.323,30.495,4.398,4.391,215.139,233.614,243.372
0.324,30.634,4.421,4.466,215.032,233.633,243.284
0.325,30.779,4.428,4.539,214.913,233.656,243.206
0.327,30.928,4.423,4.609,214.781,233.685,243.143
0.328,31.086,4.412,4.675,214.632,233.719,243.102
0.329,31.258,4.398,4.735,214.465,233.760,243.090
0.330,31.453,4.386,4.789,214.278,233.807,243.112
0.331,31.673,4.380,4.833,214.071,233.861,243.168
0.333,31.916,4.384,4.868,213.851,233.920,243.252
0.334,32.177,4.403,4.892,213.622,233.983,243.359
0.335,32.448,4.439,4.905,213.389,234.049,243.482
0.336,32.725,4.488,4.909,213.156,234.117,243.616
0.337,33.000,4.548,4.907,212.929,234.186,243.755
0.338,33.267,4.615,4.902,212.712,234.255,243.893
0.340,33.517,4.687,4.897,212.511,234.322,244.025
0.341,33.744,4.760,4.894,212.329,234.387,244.146
0.342,33.942,4.832,4.896,212.172,234.449,244.248
0.343,34.110,4.899,4.906,212.039,234.507,244.333
0.344,34.252,4.959,4.926,211.927,234.561,244.402
0.346,34.371,5.012,4.955,211.832,234.611,244.455
0.347,34.471,5.058,4.991,211.753,234.657,244.494
0.348,34.554,5.098,5.033,211.687,234.698,244.521
0.349,34.625,5.134,5.078,211.629,234.736,244.537
0.350,34.686,5.165,5.124,211.578,234.769,244.544
0.352,34.742,5.193,5.169,211.530,234.797,244.544
0.353,34.795,5.219,5.211,211.483,234.821,244.536
0.354,34.850,5.243,5.248,211.433,234.841,244.524
0.355,34.908,5.267,5.279,211.379,234.856,244.508
0.356,34.970,5.290,5.307,211.320,234.867,244.490
0.358,35.040,5.314,5.332,211.254,234.874,244.472
0.359,35.116,5.339,5.356,211.180,234.878,244.453
0.360,35.203,5.367,5.380,211.095,234.879,244.437
0.361,35.299,5.398,5.407,210.999,234.878,244.424
0.362,35.409,5.433,5.437,210.890,234.874,244.416
0.364,35.532,5.473,5.473,210.767,234.867,244.413
0.365,35.672,5.518,5.515,210.628,234.859,244.418
0.366,35.828,5.567,5.562,210.472,234.850,244.431
0.367,35.999,5.618,5.614,210.303,234.839,244.451
0.368,36.179,5.671,5.667,210.124,234.825,244.474
0.369,36.366,5.724,5.720,209.940,234.810,244.497
0.371,36.555,5.775,5.772,209.753,234.791,244.520
0.372,36.742,5.823,5.821,209.569,234.770,244.538
0.373,36.923,5.866,5.865,209.390,234.745,244.549
0.374,37.094,5.902,5.903,209.221,234.716,244.552
0.375,37.254,5.932,5.933,209.065,234.683,244.542
0.377,37.399,5.957,5.958,208.926,234.646,244.518
0.378,37.532,5.977,5.978,208.807,234.605,244.479
0.379,37.654,5.994,5.995,208.706,234.560,244.426
0.380,37.769,6.009,6.010,208.622,234.512,244.363
0.381,37.879,6.023,6.024,208.553,234.464,244.292
0.383,37.985,6.038,6.038,208.496,234.415,244.218
0.384,38.086,6.054,6.054,208.451,234.366,244.142
0.385,38.181,6.072,6.071,208.414,234.320,244.067
0.386,38.268,6.091,6.091,208.385,234.277,243.998
0.387,38.345,6.113,6.112,208.362,234.237,243.935
0.389,38.411,6.134,6.134,208.341,234.203,243.883
0.390,38.463,6.155,6.155,208.323,234.174,243.843
0.391,38.504,6.175,6.175,208.307,234.150,243.814
0.392,38.536,6.193,6.193,208.292,234.130,243.794
0.393,38.561,6.208,6.209,208.277,234.115,243.782
0.395,38.582,6.221,6.220,208.262,234.102,243.775
0.396,38.600,6.229,6.229,208.247,234.092,243.773
0.397,38.618,6.235,6.234,208.231,234.085,243.774
0.398,38.636,6.237,6.236,208.213,234.079,243.776
0.399,38.657,6.237,6.236,208.194,234.073,243.778
0.400,38.679,6.235,6.234,208.172,234.069,243.778
0.402,38.706,6.232,6.230,208.146,234.063,243.774
0.403,38.738,6.227,6.226,208.115,234.057,243.766
0.404,38.781,6.220,6.220,208.076,234.048,243.752
0.405,38.835,6.214,6.215,208.027,234.037,243.730
0.406,38.905,6.209,6.212,207.967,234.022,243.698
0.408,38.992,6.207,6.211,207.893,234.003,243.656
0.409,39.100,6.209,6.215,207.803,233.979,243.602
0.410,39.231,6.219,6.225,207.696,233.948,243.534
0.411,39.388,6.237,6.243,207.568,233.911,243.451
0.412,39.573,6.265,6.270,207.419,233.866,243.351
0.414,39.784,6.306,6.307,207.250,233.814,243.236
0.415,40.013,6.360,6.358,207.066,233.757,243.110
0.416,40.254,6.428,6.419,206.875,233.696,242.978
0.417,40.500,6.504,6.489,206.680,233.634,242.842
0.418,40.742,6.587,6.564,206.488,233.573,242.707
0.420,40.974,6.672,6.640,206.304,233.514,242.578
0.421,41.189,6.756,6.715,206.135,233.459,242.458
0.422,41.378,6.835,6.785,205.985,233.410,242.352
0.423,41.536,6.906,6.848,205.861,233.369,242.263
0.424,41.656,6.964,6.899,205.767,233.338,242.196
0.426,41.738,7.008,6.936,205.704,233.317,242.150
0.427,41.787,7.039,6.961,205.666,233.303,242.120
0.428,41.811,7.056,6.974,205.649,233.296,242.105
0.429,41.816,7.062,6.977,205.649,233.294,242.100
0.430,41.829,7.058,6.972,205.661,233.295,242.103
0.431,41.850,7.045,6.959,205.681,233.299,242.108
0.433,41.874,7.025,6.941,205.704,233.303,242.114
0.434,41.896,6.997,6.918,205.725,233.306,242.117
0.435,41.912,6.965,6.892,205.741,233.307,242.112
0.436,41.928,6.929,6.864,205.748,233.304,242.098
0.437,41.953,6.890,6.834,205.743,233.297,242.074
0.439,41.991,6.848,6.803,205.729,233.285,242.042
0.440,42.039,6.806,6.772,205.707,233.268,242.003
0.441,42.097,6.764,6.740,205.676,233.246,241.959
0.442,42.164,6.724,6.709,205.638,233.218,241.911
0.443,42.238,6.685,6.679,205.594,233.185,241.861
0.445,42.319,6.650,6.651,205.545,233.147,241.810
0.446,42.405,6.619,6.624,205.491,233.102,241.760
0.447,42.496,6.592,6.599,205.433,233.050,241.713
0.448,42.590,6.568,6.577,205.372,232.992,241.669
0.449,42.687,6.549,6.556,205.311,232.930,241.630
0.451,42.782,6.532,6.538,205.250,232.865,241.593
0.452,42.876,6.518,6.523,205.192,232.800,241.560
0.453,42.963,6.507,6.510,205.138,232.737,241.531
0.454,43.043,6.498,6.499,205.092,232.679,241.504
0.455,43.112,6.492,6.491,205.054,232.626,241.480
0.456,43.168,6.487,6.485,205.027,232.582,241.458
0.458,43.209,6.483,6.481,205.012,232.549,241.439
0.459,43.236,6.478,6.476,205.012,232.529,241.422
0.460,43.258,6.472,6.470,205.027,232.522,241.406
0.461,43.286,6.464,6.463,205.051,232.527,241.393
0.462,43.318,6.453,6.452,205.078,232.538,241.381
0.464,43.347,6.438,6.438,205.102,232.552,241.370
0.465,43.367,6.419,6.419,205.115,232.564,241.362
0.466,43.378,6.393,6.394,205.111,232.572,241.355
0.467,43.406,6.362,6.362,205.083,232.570,241.350
0.468,43.466,6.323,6.324,205.025,232.554,241.346
0.470,43.567,6.277,6.278,204.930,232.521,241.345
0.471,43.715,6.223,6.224,204.792,232.467,241.344
0.472,43.915,6.160,6.161,204.607,232.389,241.346
0.473,44.160,6.088,6.088,204.383,232.290,241.348
0.474,44.441,6.006,6.006,204.128,232.173,241.351
0.476,44.749,5.914,5.914,203.849,232.042,241.354
0.477,45.076,5.813,5.813,203.555,231.899,241.356
0.478,45.413,5.706,5.706,203.254,231.748,241.357
0.479,45.752,5.596,5.595,202.953,231.593,241.357
0.480,46.083,5.484,5.483,202.661,231.435,241.355
0.482,46.399,5.374,5.373,202.386,231.280,241.350
0.483,46.691,5.269,5.268,202.136,231.129,241.342
0.484,46.956,5.170,5.170,201.915,230.984,241.330
0.485,47.195,5.081,5.081,201.721,230.845,241.313
0.486,47.414,5.003,5.004,201.551,230.710,241.289
