"T","Distance","Radius","FreeRadius","X","Y","Z"
0.000,0.000,3.810,3.810,223.019,202.859,218.712
0.001,0.324,3.856,3.856,222.996,203.038,218.981
0.003,0.646,3.902,3.902,222.972,203.218,219.247
0.004,0.962,3.949,3.949,222.946,203.396,219.508
0.005,1.272,3.997,3.997,222.916,203.573,219.759
0.007,1.571,4.046,4.046,222.883,203.749,220.000
0.008,1.859,4.096,4.096,222.844,203.922,220.226
0.009,2.133,4.147,4.147,222.798,204.093,220.435
0.011,2.391,4.200,4.200,222.745,204.261,220.624
0.012,2.633,4.255,4.255,222.684,204.426,220.790
0.013,2.858,4.312,4.312,222.612,204.587,220.930
0.015,3.068,4.370,4.370,222.530,204.744,221.042
0.016,3.264,4.430,4.430,222.437,204.897,221.122
0.017,3.452,4.491,4.491,222.331,205.044,221.170
0.019,3.637,4.553,4.553,222.214,205.187,221.189
0.020,3.824,4.617,4.617,222.087,205.324,221.185
0.021,4.012,4.681,4.681,221.954,205.455,221.163
0.023,4.203,4.745,4.745,221.814,205.580,221.128
0.024,4.394,4.807,4.807,221.670,205.699,221.085
0.025,4.584,4.866,4.866,221.524,205.811,221.040
0.027,4.769,4.920,4.920,221.377,205.916,220.998
0.028,4.948,4.968,4.968,221.231,206.013,220.963
0.029,5.119,5.008,5.008,221.087,206.103,220.942
0.031,5.281,5.038,5.038,220.948,206.186,220.940
0.032,5.434,5.059,5.059,220.815,206.260,220.961
0.033,5.584,5.073,5.073,220.690,206.325,221.008
0.035,5.734,5.083,5.083,220.571,206.384,221.080
0.036,5.888,5.093,5.093,220.460,206.435,221.172
0.037,6.045,5.106,5.106,220.354,206.479,221.281
0.039,6.207,5.125,5.125,220.255,206.518,221.403
0.040,6.372,5.153,5.153,220.162,206.552,221.534
0.041,6.537,5.193,5.193,220.073,206.581,221.670
0.043,6.700,5.245,5.245,219.990,206.606,221.808
0.044,6.859,5.305,5.305,219.911,206.628,221.945
0.045,7.010,5.371,5.371,219.836,206.647,222.075
0.047,7.152,5.439,5.439,219.766,206.665,222.196
0.048,7.280,5.506,5.506,219.698,206.681,222.304
0.049,7.394,5.570,5.570,219.634,206.696,222.397
0.051,7.494,5.626,5.626,219.573,206.711,222.475
0.052,7.583,5.673,5.673,219.516,206.725,222.541
0.053,7.660,5.712,5.712,219.462,206.739,222.594
0.055,7.727,5.742,5.742,219.412,206.752,222.638
0.056,7.787,5.765,5.765,219.365,206.764,222.673
0.057,7.838,5.783,5.783,219.323,206.777,222.700
0.059,7.884,5.797,5.797,219.285,206.789,222.721
0.060,7.923,5.808,5.808,219.251,206.801,222.738
0.061,7.958,5.816,5.816,219.222,206.813,222.751
0.063,7.988,5.823,5.823,219.197,206.825,222.763
0.064,8.014,5.829,5.829,219.177,206.837,222.774
0.065,8.037,5.834,5.834,219.161,206.849,222.786
0.066,8.058,5.838,5.838,219.149,206.861,222.798
0.068,8.078,5.843,5.843,219.140,206.873,222.811
0.069,8.098,5.848,5.848,219.131,206.885,222.825
0.070,8.119,5.853,5.853,219.124,206.898,222.839
0.072,8.140,5.859,5.859,219.115,206.910,222.854
0.073,8.162,5.865,5.865,219.105,206.923,222.869
0.074,8.186,5.872,5.872,219.092,206.935,222.885
0.076,8.212,5.880,5.880,219.075,206.948,222.901
0.077,8.242,5.887,5.887,219.053,206.960,222.917
0.078,8.277,5.895,5.895,219.025,206.972,222.934
0.080,8.318,5.902,5.902,218.990,206.985,222.951
0.081,8.365,5.909,5.909,218.948,206.997,222.969
0.082,8.419,5.916,5.916,218.899,207.009,222.987
0.084,8.478,5.922,5.922,218.843,207.021,223.005
0.085,8.542,5.929,5.929,218.783,207.032,223.023
0.086,8.610,5.936,5.936,218.718,207.044,223.041
0.088,8.682,5.944,5.944,218.650,207.055,223.059
0.089,8.757,5.952,5.952,218.578,207.067,223.077
0.090,8.833,5.962,5.962,218.504,207.078,223.094
0.092,8.911,5.973,5.973,218.429,207.089,223.112
0.093,8.990,5.986,5.986,218.353,207.100,223.129
0.094,9.069,6.000,6.000,218.277,207.111,223.145
0.096,9.146,6.014,6.014,218.202,207.121,223.162
0.097,9.223,6.030,6.030,218.128,207.131,223.177
0.098,9.297,6.046,6.046,218.056,207.141,223.192
0.100,9.370,6.063,6.063,217.985,207.151,223.207
0.101,9.439,6.079,6.079,217.918,207.161,223.221
0.102,9.507,6.096,6.096,217.853,207.170,223.235
0.104,9.571,6.112,6.112,217.791,207.178,223.249
0.105,9.631,6.127,6.127,217.732,207.187,223.262
0.106,9.688,6.142,6.142,217.677,207.194,223.275
0.108,9.741,6.156,6.156,217.627,207.201,223.288
0.109,9.789,6.168,6.168,217.581,207.208,223.301
0.110,9.833,6.179,6.179,217.539,207.214,223.314
0.112,9.871,6.188,6.188,217.503,207.219,223.326
0.113,9.905,6.195,6.195,217.472,207.224,223.339
0.114,9.934,6.200,6.200,217.446,207.227,223.350
0.116,9.958,6.203,6.203,217.425,207.231,223.361
0.117,9.977,6.204,6.204,217.408,207.233,223.370
0.118,9.992,6.203,6.203,217.395,207.235,223.377
0.120,10.002,6.201,6.201,217.387,207.236,223.382
0.121,10.007,6.196,6.196,217.382,207.236,223.385
0.122,10.008,6.189,6.189,217.381,207.236,223.384
0.124,10.013,6.181,6.181,217.383,207.235,223.380
0.125,10.022,6.173,6.173,217.389,207.234,223.373
0.126,10.037,6.166,6.166,217.397,207.232,223.361
0.128,10.057,6.160,6.160,217.408,207.229,223.344
0.129,10.081,6.157,6.157,217.420,207.226,223.324
0.130,10.106,6.158,6.158,217.432,207.223,223.302
0.132,10.131,6.163,6.163,217.443,207.220,223.280
0.133,10.151,6.173,6.173,217.450,207.219,223.261
0.134,10.165,6.185,6.185,217.451,207.219,223.247
0.136,10.175,6.197,6.197,217.446,207.222,223.239
0.137,10.189,6.208,6.208,217.433,207.227,223.240
0.138,10.217,6.215,6.215,217.409,207.235,223.253
0.140,10.263,6.217,6.217,217.373,207.247,223.278
0.141,10.328,6.210,6.210,217.324,207.263,223.318
0.142,10.418,6.194,6.194,217.259,207.284,223.376
0.144,10.533,6.169,6.169,217.178,207.310,223.453
0.145,10.674,6.137,6.137,217.079,207.341,223.550
0.146,10.840,6.100,6.100,216.966,207.377,223.665
0.148,11.028,6.061,6.061,216.838,207.417,223.797
0.149,11.237,6.022,6.022,216.697,207.462,223.945
0.150,11.465,5.986,5.986,216.545,207.510,224.108
0.152,11.709,5.955,5.955,216.383,207.561,224.284
0.153,11.969,5.931,5.931,216.213,207.615,224.472
0.154,12.241,5.914,5.914,216.036,207.672,224.671
0.156,12.525,5.905,5.905,215.854,207.731,224.880
0.157,12.818,5.904,5.904,215.667,207.792,225.097
0.158,13.118,5.912,5.912,215.477,207.855,225.322
0.160,13.424,5.930,5.930,215.287,207.918,225.552
0.161,13.732,5.957,5.957,215.096,207.982,225.786
0.162,14.040,5.994,5.994,214.908,208.045,226.021
0.164,14.343,6.040,6.040,214.724,208.107,226.254
0.165,14.639,6.093,6.093,214.546,208.167,226.483
0.166,14.924,6.150,6.150,214.375,208.223,226.704
0.168,15.194,6.209,6.209,214.214,208.275,226.915
0.169,15.447,6.268,6.268,214.064,208.321,227.113
0.170,15.678,6.324,6.324,213.928,208.362,227.295
0.172,15.884,6.374,6.374,213.806,208.395,227.458
0.173,16.063,6.417,6.417,213.701,208.420,227.600
0.174,16.209,6.453,6.453,213.615,208.436,227.718
0.176,16.322,6.481,6.481,213.549,208.442,227.809
0.177,16.403,6.503,6.503,213.502,208.440,227.875
0.178,16.456,6.519,6.519,213.473,208.431,227.917
0.180,16.486,6.530,6.530,213.457,208.418,227.940
0.181,16.503,6.537,6.537,213.454,208.403,227.947
0.182,16.521,6.539,6.539,213.460,208.388,227.940
0.184,16.546,6.538,6.538,213.474,208.376,227.922
0.185,16.578,6.535,6.534,213.492,208.368,227.897
0.186,16.615,6.530,6.529,213.513,208.367,227.867
0.188,16.653,6.524,6.523,213.533,208.375,227.836
0.189,16.693,6.518,6.517,213.551,208.394,227.806
0.190,16.736,6.513,6.513,213.565,208.426,227.781
0.191,16.787,6.510,6.510,213.571,208.474,227.763
0.193,16.851,6.510,6.511,213.569,208.536,227.753
0.194,16.926,6.512,6.514,213.560,208.611,227.751
0.195,17.012,6.517,6.519,213.545,208.696,227.756
0.197,17.109,6.522,6.525,213.524,208.789,227.769
0.198,17.214,6.529,6.532,213.497,208.889,227.789
0.199,17.325,6.536,6.538,213.465,208.992,227.816
0.201,17.441,6.543,6.544,213.428,209.096,227.850
0.202,17.560,6.549,6.548,213.386,209.201,227.890
0.203,17.681,6.554,6.551,213.341,209.303,227.936
0.205,17.801,6.558,6.553,213.293,209.400,227.988
0.206,17.920,6.562,6.555,213.242,209.490,228.045
0.207,18.036,6.568,6.559,213.188,209.572,228.108
0.209,18.149,6.575,6.566,213.133,209.645,228.175
0.210,18.258,6.585,6.577,213.079,209.709,228.245
0.211,18.363,6.597,6.594,213.027,209.765,228.315
0.213,18.461,6.614,6.618,212.978,209.814,228.386
0.214,18.553,6.634,6.648,212.934,209.856,228.455
0.215,18.636,6.655,6.681,212.896,209.891,228.520
0.217,18.710,6.677,6.715,212.866,209.920,228.580
0.218,18.773,6.697,6.745,212.845,209.944,228.635
0.219,18.824,6.713,6.770,212.835,209.962,228.681
0.221,18.863,6.724,6.787,212.838,209.976,228.718
0.222,18.896,6.728,6.792,212.854,209.985,228.745
0.223,18.930,6.724,6.783,212.884,209.991,228.760
0.225,18.972,6.713,6.762,212.926,209.994,228.765
0.226,19.019,6.696,6.732,212.973,209.993,228.764
0.227,19.066,6.674,6.698,213.020,209.990,228.760
0.229,19.109,6.650,6.662,213.062,209.985,228.756
0.230,19.141,6.624,6.627,213.093,209.978,228.755
0.231,19.161,6.599,6.598,213.110,209.969,228.761
0.233,19.179,6.575,6.577,213.105,209.960,228.777
0.234,19.223,6.553,6.564,213.075,209.950,228.806
0.235,19.300,6.530,6.557,213.013,209.940,228.851
0.237,19.418,6.505,6.551,212.914,209.930,228.916
0.238,19.583,6.474,6.541,212.774,209.921,229.003
0.239,19.800,6.435,6.522,212.589,209.913,229.115
0.241,20.062,6.386,6.491,212.363,209.906,229.248
0.242,20.359,6.323,6.442,212.107,209.900,229.399
0.243,20.683,6.246,6.373,211.827,209.895,229.562
0.245,21.025,6.155,6.284,211.531,209.890,229.732
0.246,21.374,6.056,6.184,211.229,209.886,229.906
0.247,21.721,5.953,6.076,210.926,209.882,230.078
0.249,22.058,5.850,5.967,210.633,209.879,230.244
0.250,22.375,5.751,5.864,210.357,209.876,230.399
0.251,22.663,5.662,5.771,210.105,209.873,230.539
0.253,22.912,5.586,5.696,209.887,209.870,230.658
0.254,23.113,5.527,5.642,209.710,209.867,230.753
0.255,23.259,5.482,5.606,209.579,209.863,230.819
0.257,23.357,5.451,5.586,209.491,209.860,230.861
0.258,23.414,5.431,5.578,209.438,209.857,230.882
0.259,23.438,5.420,5.579,209.414,209.855,230.886
0.261,23.447,5.415,5.585,209.413,209.853,230.878
0.262,23.468,5.414,5.593,209.427,209.853,230.862
0.263,23.499,5.416,5.600,209.450,209.853,230.842
0.265,23.531,5.418,5.603,209.475,209.855,230.823
0.266,23.557,5.419,5.604,209.496,209.858,230.808
0.267,23.570,5.419,5.603,209.506,209.864,230.802
0.269,23.582,5.416,5.600,209.499,209.871,230.809
0.270,23.624,5.409,5.594,209.467,209.881,230.833
0.271,23.700,5.396,5.588,209.405,209.894,230.877
0.273,23.811,5.378,5.579,209.316,209.909,230.940
0.274,23.951,5.352,5.570,209.202,209.929,231.019
0.275,24.118,5.320,5.559,209.064,209.953,231.111
0.277,24.309,5.284,5.545,208.905,209.982,231.213
0.278,24.521,5.245,5.526,208.728,210.017,231.323
0.279,24.750,5.207,5.503,208.536,210.059,231.439
0.281,24.993,5.170,5.475,208.329,210.107,231.558
0.282,25.247,5.136,5.439,208.111,210.163,231.676
0.283,25.509,5.107,5.395,207.885,210.228,231.792
0.285,25.777,5.085,5.344,207.652,210.302,231.903
0.286,26.049,5.068,5.288,207.415,210.385,232.006
0.287,26.322,5.057,5.231,207.176,210.478,232.100
0.289,26.594,5.049,5.176,206.938,210.578,232.185
0.290,26.863,5.046,5.126,206.703,210.685,232.260
0.291,27.127,5.045,5.084,206.473,210.796,232.328
0.293,27.385,5.047,5.054,206.250,210.910,232.389
0.294,27.632,5.051,5.038,206.037,211.023,232.442
0.295,27.868,5.056,5.035,205.835,211.135,232.490
0.297,28.089,5.062,5.043,205.647,211.244,232.532
0.298,28.292,5.067,5.057,205.475,211.347,232.569
0.299,28.476,5.073,5.075,205.322,211.443,232.601
0.301,28.637,5.078,5.095,205.190,211.530,232.630
0.302,28.773,5.081,5.112,205.080,211.606,232.656
0.303,28.882,5.083,5.123,204.994,211.669,232.680
0.305,28.967,5.082,5.128,204.930,211.721,232.701
0.306,29.031,5.080,5.126,204.886,211.762,232.720
0.307,29.077,5.076,5.120,204.858,211.795,232.736
0.309,29.107,5.073,5.111,204.845,211.818,232.751
0.310,29.127,5.069,5.101,204.844,211.834,232.763
0.311,29.144,5.066,5.092,204.853,211.844,232.774
0.313,29.164,5.064,5.085,204.870,211.848,232.783
0.314,29.187,5.064,5.082,204.892,211.847,232.790
0.315,29.212,5.065,5.083,204.916,211.843,232.796
0.316,29.238,5.068,5.087,204.941,211.837,232.800
0.318,29.263,5.071,5.095,204.964,211.829,232.803
0.319,29.284,5.073,5.103,204.983,211.820,232.805
0.320,29.300,5.075,5.112,204.997,211.813,232.807
0.322,29.310,5.074,5.121,205.005,211.807,232.810
0.323,29.315,5.071,5.129,205.006,211.805,232.815
0.324,29.325,5.065,5.134,204.999,211.807,232.822
0.326,29.346,5.057,5.138,204.983,211.815,232.832
0.327,29.380,5.046,5.139,204.958,211.831,232.847
0.328,29.428,5.034,5.139,204.921,211.854,232.867
0.330,29.492,5.021,5.137,204.872,211.888,232.894
0.331,29.575,5.008,5.134,204.811,211.933,232.927
0.332,29.678,4.996,5.129,204.736,211.990,232.968
0.334,29.803,4.985,5.123,204.646,212.060,233.018
0.335,29.949,4.975,5.117,204.541,212.144,233.077
0.336,30.113,4.968,5.110,204.425,212.238,233.143
0.338,30.289,4.962,5.102,204.301,212.341,233.214
0.339,30.474,4.959,5.095,204.171,212.449,233.288
0.340,30.663,4.959,5.088,204.038,212.560,233.364
0.342,30.852,4.962,5.081,203.906,212.672,233.440
0.343,31.036,4.967,5.076,203.777,212.780,233.513
0.344,31.211,4.976,5.072,203.654,212.884,233.583
0.346,31.372,4.988,5.068,203.540,212.979,233.647
0.347,31.516,5.001,5.066,203.439,213.064,233.703
0.348,31.638,5.016,5.064,203.352,213.135,233.751
0.350,31.733,5.030,5.064,203.284,213.191,233.787
0.351,31.801,5.043,5.063,203.235,213.230,233.811
0.352,31.845,5.055,5.063,203.201,213.255,233.827
0.354,31.870,5.064,5.063,203.182,213.269,233.834
0.355,31.880,5.070,5.063,203.173,213.273,233.835
0.356,31.884,5.073,5.063,203.173,213.271,233.831
0.358,31.894,5.074,5.064,203.178,213.266,233.825
0.359,31.907,5.074,5.064,203.187,213.258,233.819
0.360,31.919,5.073,5.066,203.196,213.252,233.813
0.362,31.927,5.072,5.068,203.203,213.249,233.810
0.363,31.932,5.072,5.070,203.205,213.253,233.811
0.364,31.947,5.073,5.074,203.200,213.265,233.819
0.366,31.979,5.075,5.079,203.185,213.288,233.835
0.367,32.028,5.079,5.084,203.160,213.323,233.859
0.368,32.091,5.084,5.091,203.126,213.367,233.890
0.370,32.166,5.090,5.098,203.087,213.418,233.926
0.371,32.247,5.098,5.106,203.043,213.474,233.966
0.372,32.332,5.106,5.114,202.998,213.533,234.009
0.374,32.418,5.115,5.124,202.953,213.592,234.052
0.375,32.502,5.125,5.133,202.911,213.650,234.094
0.376,32.579,5.135,5.143,202.874,213.704,234.134
0.378,32.646,5.145,5.153,202.844,213.752,234.170
0.379,32.701,5.155,5.161,202.822,213.792,234.201
0.380,32.740,5.164,5.169,202.813,213.822,234.225
0.382,32.764,5.171,5.175,202.816,213.839,234.241
0.383,32.783,5.177,5.178,202.832,213.845,234.249
0.384,32.807,5.180,5.179,202.856,213.842,234.250
0.386,32.837,5.182,5.178,202.884,213.833,234.248
0.387,32.868,5.182,5.176,202.913,213.822,234.242
0.388,32.895,5.181,5.173,202.937,213.812,234.236
0.390,32.914,5.179,5.172,202.954,213.805,234.231
0.391,32.919,5.178,5.174,202.959,213.806,234.229
0.392,32.935,5.178,5.179,202.948,213.817,234.232
0.394,32.976,5.180,5.189,202.916,213.841,234.242
0.395,33.047,5.183,5.206,202.861,213.882,234.261
0.396,33.155,5.190,5.229,202.777,213.943,234.289
0.398,33.303,5.202,5.259,202.662,214.027,234.330
0.399,33.490,5.219,5.297,202.516,214.132,234.383
0.400,33.710,5.243,5.342,202.345,214.256,234.446
0.402,33.955,5.275,5.395,202.156,214.394,234.516
0.403,34.217,5.317,5.456,201.954,214.543,234.592
0.404,34.490,5.370,5.525,201.745,214.700,234.672
0.406,34.766,5.433,5.603,201.535,214.859,234.753
0.407,35.038,5.504,5.685,201.329,215.019,234.833
0.408,35.299,5.579,5.769,201.135,215.174,234.911
0.410,35.542,5.655,5.852,200.957,215.322,234.984
0.411,35.759,5.727,5.932,200.801,215.458,235.050
0.412,35.943,5.794,6.004,200.674,215.579,235.108
0.414,36.089,5.850,6.066,200.581,215.681,235.155
0.415,36.199,5.893,6.115,200.521,215.764,235.191
0.416,36.279,5.922,6.151,200.489,215.832,235.220
0.418,36.338,5.940,6.175,200.482,215.887,235.242
0.419,36.388,5.950,6.190,200.494,215.931,235.261
0.420,36.437,5.953,6.197,200.521,215.968,235.278
0.422,36.489,5.952,6.199,200.558,216.000,235.295
0.423,36.545,5.950,6.196,200.601,216.030,235.316
0.424,36.604,5.949,6.192,200.645,216.060,235.341
0.426,36.666,5.952,6.187,200.686,216.094,235.373
0.427,36.732,5.958,6.184,200.718,216.133,235.414
0.428,36.806,5.968,6.183,200.738,216.182,235.467
0.430,36.894,5.983,6.185,200.741,216.241,235.533
0.431,37.001,6.002,6.192,200.726,216.311,235.611
0.432,37.124,6.025,6.206,200.696,216.391,235.701
0.434,37.262,6.054,6.226,200.652,216.478,235.799
0.435,37.413,6.088,6.255,200.597,216.570,235.905
0.436,37.574,6.126,6.292,200.531,216.666,236.016
0.438,37.742,6.168,6.336,200.457,216.763,236.131
0.439,37.914,6.214,6.383,200.377,216.861,236.248
0.440,38.087,6.261,6.432,200.292,216.956,236.364
0.441,38.258,6.309,6.480,200.205,217.048,236.479
0.443,38.424,6.357,6.526,200.116,217.134,236.590
0.444,38.582,6.405,6.567,200.028,217.213,236.695
0.445,38.729,6.450,6.600,199.943,217.283,236.793
0.447,38.866,6.493,6.627,199.861,217.343,236.884
0.448,38.991,6.533,6.649,199.783,217.395,236.967
0.449,39.107,6.571,6.666,199.707,217.438,237.044
0.451,39.214,6.607,6.681,199.635,217.474,237.114
0.452,39.311,6.639,6.695,199.567,217.502,237.178
0.453,39.401,6.668,6.708,199.502,217.523,237.236
0.455,39.483,6.694,6.723,199.441,217.538,237.288
0.456,39.558,6.717,6.740,199.384,217.547,237.335
0.457,39.626,6.737,6.759,199.330,217.550,237.378
0.459,39.689,6.754,6.778,199.280,217.548,237.416
0.460,39.746,6.768,6.797,199.235,217.542,237.450
0.461,39.798,6.779,6.815,199.193,217.531,237.480
0.463,39.848,6.788,6.832,199.154,217.518,237.507
0.464,39.895,6.795,6.845,199.117,217.501,237.531
0.465,39.942,6.799,6.855,199.080,217.483,237.554
0.467,39.989,6.801,6.862,199.042,217.465,237.574
0.468,40.039,6.801,6.867,199.001,217.446,237.595
0.469,40.091,6.800,6.870,198.956,217.428,237.615
0.471,40.148,6.798,6.873,198.905,217.411,237.635
0.472,40.211,6.794,6.877,198.848,217.397,237.657
0.473,40.282,6.789,6.882,198.782,217.386,237.680
0.475,40.362,6.784,6.889,198.706,217.378,237.706
0.476,40.453,6.779,6.900,198.620,217.376,237.734
0.477,40.557,6.773,6.912,198.521,217.379,237.766
0.479,40.672,6.768,6.926,198.412,217.387,237.801
0.480,40.796,6.764,6.939,198.295,217.400,237.838
0.481,40.926,6.761,6.950,198.172,217.416,237.877
0.483,41.059,6.760,6.957,198.045,217.435,237.917
0.484,41.195,6.762,6.960,197.918,217.456,237.958
0.485,41.329,6.767,6.958,197.793,217.479,237.998
0.487,41.459,6.774,6.949,197.671,217.503,238.037
0.488,41.583,6.784,6.935,197.555,217.527,238.074
0.489,41.698,6.795,6.918,197.448,217.551,238.109
0.491,41.801,6.807,6.900,197.352,217.573,238.141
0.492,41.891,6.819,6.880,197.269,217.593,238.169
0.493,41.965,6.831,6.861,197.201,217.611,238.193
0.495,42.025,6.840,6.845,197.147,217.626,238.213
0.496,42.073,6.848,6.832,197.103,217.638,238.229
0.497,42.112,6.853,6.823,197.068,217.647,238.242
0.499,42.144,6.857,6.818,197.038,217.653,238.252
0.500,42.172,6.859,6.818,197.011,217.656,238.259
0.501,42.198,6.860,6.822,196.985,217.656,238.265
0.503,42.227,6.860,6.830,196.957,217.652,238.268
0.504,42.260,6.859,6.844,196.925,217.645,238.270
0.505,42.301,6.858,6.863,196.885,217.634,238.271
0.507,42.352,6.858,6.886,196.836,217.620,238.271
0.508,42.417,6.858,6.913,196.774,217.602,238.271
0.509,42.495,6.858,6.942,196.699,217.580,238.271
0.511,42.586,6.859,6.971,196.611,217.555,238.271
0.512,42.687,6.861,6.999,196.514,217.528,238.271
0.513,42.796,6.865,7.024,196.409,217.499,238.271
0.515,42.910,6.869,7.046,196.298,217.470,238.271
0.516,43.027,6.876,7.061,196.186,217.440,238.270
0.517,43.144,6.884,7.071,196.072,217.412,238.270
0.519,43.258,6.893,7.077,195.961,217.385,238.270
0.520,43.368,6.901,7.078,195.854,217.361,238.270
0.521,43.471,6.910,7.078,195.754,217.340,238.270
0.523,43.563,6.917,7.076,195.662,217.322,238.269
0.524,43.644,6.922,7.073,195.583,217.310,238.269
0.525,43.711,6.924,7.072,195.516,217.303,238.268
0.527,43.766,6.924,7.071,195.461,217.301,238.268
0.528,43.810,6.921,7.072,195.417,217.303,238.267
0.529,43.845,6.917,7.073,195.383,217.310,238.266
0.531,43.874,6.911,7.073,195.356,217.320,238.264
0.532,43.899,6.905,7.071,195.336,217.334,238.262
0.533,43.921,6.900,7.067,195.321,217.351,238.259
0.535,43.944,6.896,7.061,195.310,217.371,238.256
0.536,43.968,6.894,7.050,195.301,217.392,238.252
0.537,43.993,6.893,7.036,195.293,217.415,238.246
0.539,44.020,6.895,7.019,195.284,217.440,238.240
0.540,44.048,6.897,7.002,195.274,217.466,238.233
0.541,44.079,6.901,6.984,195.261,217.492,238.225
0.543,44.110,6.905,6.969,195.244,217.517,238.217
