"T","Distance","Radius","FreeRadius","X","Y","Z"
0.000,0.000,1.537,1.537,277.448,224.834,234.307
0.001,0.217,1.551,1.551,277.314,225.003,234.332
0.003,0.432,1.565,1.565,277.183,225.171,234.358
0.004,0.641,1.579,1.579,277.057,225.336,234.385
0.005,0.843,1.594,1.594,276.940,225.498,234.416
0.007,1.034,1.611,1.611,276.835,225.654,234.450
0.008,1.214,1.628,1.628,276.744,225.804,234.489
0.009,1.380,1.647,1.647,276.671,225.947,234.533
0.011,1.533,1.668,1.668,276.617,226.080,234.583
0.012,1.673,1.691,1.691,276.587,226.204,234.641
0.013,1.803,1.717,1.717,276.583,226.317,234.706
0.015,1.930,1.747,1.747,276.607,226.416,234.781
0.016,2.063,1.783,1.783,276.662,226.503,234.866
0.017,2.205,1.824,1.824,276.743,226.577,234.957
0.018,2.358,1.872,1.872,276.845,226.639,235.052
0.020,2.519,1.928,1.928,276.962,226.691,235.149
0.021,2.683,1.993,1.993,277.089,226.733,235.244
0.022,2.846,2.064,2.064,277.220,226.768,235.335
0.024,3.003,2.138,2.138,277.350,226.795,235.419
0.025,3.148,2.212,2.212,277.473,226.817,235.493
0.026,3.276,2.282,2.282,277.584,226.834,235.554
0.028,3.381,2.344,2.344,277.678,226.848,235.599
0.029,3.457,2.395,2.395,277.748,226.859,235.625
0.030,3.503,2.432,2.432,277.792,226.869,235.632
0.032,3.528,2.451,2.451,277.814,226.878,235.622
0.033,3.549,2.456,2.456,277.818,226.884,235.602
0.034,3.575,2.452,2.452,277.811,226.889,235.577
0.036,3.604,2.441,2.441,277.799,226.891,235.552
0.037,3.627,2.428,2.428,277.786,226.891,235.533
0.038,3.638,2.417,2.417,277.778,226.888,235.524
0.040,3.649,2.412,2.412,277.782,226.883,235.532
0.041,3.685,2.416,2.416,277.802,226.874,235.562
0.042,3.757,2.432,2.432,277.844,226.862,235.618
0.044,3.872,2.458,2.458,277.915,226.846,235.707
0.045,4.033,2.494,2.494,278.016,226.827,235.831
0.046,4.236,2.537,2.537,278.146,226.803,235.986
0.047,4.472,2.587,2.587,278.299,226.776,236.163
0.049,4.731,2.642,2.642,278.470,226.745,236.356
0.050,5.006,2.701,2.701,278.654,226.710,236.557
0.051,5.288,2.762,2.762,278.846,226.671,236.759
0.053,5.569,2.825,2.825,279.042,226.629,236.956
0.054,5.840,2.888,2.888,279.236,226.583,237.140
0.055,6.094,2.951,2.951,279.423,226.533,237.303
0.057,6.322,3.014,3.014,279.599,226.479,237.439
0.058,6.520,3.074,3.074,279.759,226.422,237.541
0.059,6.685,3.132,3.132,279.899,226.361,237.603
0.061,6.824,3.187,3.187,280.020,226.296,237.628
0.062,6.949,3.237,3.237,280.125,226.229,237.622
0.063,7.069,3.285,3.285,280.216,226.158,237.588
0.065,7.192,3.332,3.332,280.296,226.085,237.531
0.066,7.319,3.377,3.377,280.367,226.010,237.456
0.067,7.453,3.424,3.424,280.432,225.933,237.368
0.069,7.593,3.472,3.472,280.492,225.854,237.270
0.070,7.735,3.523,3.523,280.551,225.774,237.168
0.071,7.879,3.579,3.579,280.611,225.693,237.066
0.073,8.021,3.639,3.639,280.673,225.611,236.968
0.074,8.160,3.702,3.702,280.741,225.529,236.878
0.075,8.295,3.766,3.766,280.812,225.447,236.797
0.077,8.426,3.830,3.830,280.886,225.367,236.724
0.078,8.552,3.893,3.893,280.960,225.290,236.659
0.079,8.671,3.952,3.952,281.035,225.217,236.602
0.080,8.782,4.007,4.007,281.107,225.149,236.551
0.082,8.885,4.057,4.057,281.176,225.087,236.508
0.083,8.977,4.099,4.099,281.241,225.033,236.471
0.084,9.057,4.135,4.135,281.299,224.987,236.440
0.086,9.124,4.164,4.164,281.350,224.951,236.415
0.087,9.177,4.187,4.187,281.392,224.926,236.396
0.088,9.215,4.202,4.202,281.424,224.911,236.381
0.090,9.242,4.211,4.211,281.449,224.906,236.372
0.091,9.261,4.212,4.212,281.467,224.908,236.365
0.092,9.277,4.207,4.207,281.481,224.914,236.360
0.094,9.293,4.197,4.197,281.493,224.922,236.357
0.095,9.307,4.187,4.187,281.505,224.930,236.353
0.096,9.323,4.178,4.178,281.519,224.936,236.349
0.098,9.342,4.174,4.174,281.537,224.936,236.343
0.099,9.369,4.178,4.178,281.561,224.930,236.333
0.100,9.407,4.193,4.193,281.593,224.913,236.320
0.102,9.460,4.221,4.221,281.635,224.885,236.302
0.103,9.532,4.263,4.263,281.687,224.843,236.278
0.104,9.619,4.314,4.314,281.750,224.791,236.249
0.106,9.719,4.371,4.371,281.822,224.730,236.216
0.107,9.828,4.430,4.430,281.902,224.664,236.180
0.108,9.943,4.487,4.487,281.987,224.596,236.142
0.109,10.063,4.537,4.537,282.077,224.528,236.103
0.111,10.183,4.578,4.578,282.170,224.463,236.064
0.112,10.300,4.605,4.605,282.265,224.405,236.025
0.113,10.414,4.620,4.620,282.360,224.356,235.989
0.115,10.521,4.625,4.625,282.455,224.319,235.955
0.116,10.621,4.624,4.624,282.547,224.296,235.924
0.117,10.714,4.618,4.618,282.636,224.290,235.898
0.119,10.802,4.612,4.612,282.722,224.298,235.877
0.120,10.889,4.607,4.607,282.804,224.319,235.862
0.121,10.975,4.608,4.608,282.884,224.350,235.853
0.123,11.061,4.615,4.615,282.961,224.389,235.850
0.124,11.148,4.627,4.627,283.036,224.433,235.855
0.125,11.235,4.642,4.642,283.108,224.481,235.867
0.127,11.323,4.659,4.659,283.178,224.529,235.888
0.128,11.411,4.674,4.674,283.247,224.575,235.917
0.129,11.499,4.687,4.687,283.314,224.618,235.956
0.131,11.588,4.695,4.695,283.380,224.654,236.004
0.132,11.680,4.696,4.696,283.445,224.683,236.061
0.133,11.775,4.689,4.689,283.511,224.704,236.126
0.135,11.874,4.675,4.675,283.582,224.719,236.194
0.136,11.979,4.653,4.653,283.659,224.728,236.264
0.137,12.088,4.625,4.625,283.746,224.731,236.331
0.139,12.204,4.591,4.591,283.843,224.731,236.393
0.140,12.328,4.551,4.551,283.955,224.726,236.447
0.141,12.463,4.505,4.505,284.083,224.719,236.490
0.142,12.613,4.455,4.455,284.229,224.710,236.519
0.144,12.781,4.402,4.402,284.397,224.699,236.531
0.145,12.973,4.348,4.348,284.589,224.688,236.524
0.146,13.191,4.296,4.296,284.804,224.676,236.494
0.148,13.431,4.248,4.248,285.039,224.665,236.447
0.149,13.687,4.208,4.208,285.287,224.654,236.385
0.150,13.952,4.177,4.177,285.541,224.643,236.312
0.152,14.220,4.157,4.157,285.797,224.633,236.231
0.153,14.485,4.151,4.151,286.048,224.623,236.147
0.154,14.739,4.156,4.156,286.288,224.613,236.062
0.156,14.977,4.169,4.169,286.511,224.604,235.981
0.157,15.190,4.187,4.187,286.711,224.595,235.907
0.158,15.373,4.207,4.207,286.882,224.588,235.844
0.160,15.518,4.226,4.226,287.019,224.581,235.795
0.161,15.622,4.242,4.242,287.118,224.574,235.763
0.162,15.692,4.252,4.252,287.184,224.569,235.745
0.164,15.733,4.255,4.255,287.225,224.563,235.739
0.165,15.755,4.253,4.253,287.246,224.557,235.743
0.166,15.770,4.247,4.247,287.253,224.550,235.754
0.168,15.788,4.238,4.238,287.254,224.541,235.770
0.169,15.808,4.230,4.230,287.255,224.532,235.788
0.170,15.831,4.222,4.222,287.262,224.520,235.805
0.172,15.858,4.216,4.216,287.281,224.506,235.820
0.173,15.901,4.215,4.215,287.318,224.489,235.829
0.174,15.967,4.218,4.218,287.381,224.469,235.831
0.175,16.062,4.225,4.225,287.473,224.446,235.824
0.177,16.183,4.237,4.237,287.591,224.419,235.809
0.178,16.328,4.254,4.254,287.731,224.389,235.788
0.179,16.492,4.276,4.276,287.889,224.355,235.764
0.181,16.671,4.304,4.304,288.062,224.318,235.738
0.182,16.861,4.336,4.336,288.246,224.276,235.713
0.183,17.059,4.374,4.374,288.437,224.231,235.690
0.185,17.260,4.415,4.415,288.632,224.182,235.671
0.186,17.461,4.460,4.460,288.825,224.130,235.658
0.187,17.659,4.506,4.506,289.015,224.073,235.654
0.189,17.850,4.553,4.553,289.196,224.013,235.659
0.190,18.033,4.600,4.600,289.366,223.948,235.676
0.191,18.209,4.645,4.645,289.527,223.880,235.702
0.193,18.380,4.688,4.688,289.679,223.809,235.736
0.194,18.546,4.728,4.728,289.822,223.735,235.776
0.195,18.708,4.766,4.766,289.958,223.659,235.820
0.197,18.867,4.804,4.804,290.088,223.581,235.866
0.198,19.022,4.843,4.843,290.213,223.502,235.912
0.199,19.173,4.883,4.883,290.334,223.422,235.956
0.201,19.322,4.925,4.925,290.451,223.341,235.997
0.202,19.467,4.972,4.972,290.567,223.260,236.033
0.203,19.610,5.022,5.022,290.681,223.179,236.062
0.204,19.750,5.076,5.076,290.794,223.099,236.082
0.206,19.888,5.132,5.132,290.906,223.020,236.095
0.207,20.022,5.188,5.188,291.017,222.943,236.101
0.208,20.154,5.243,5.243,291.125,222.869,236.102
0.210,20.281,5.295,5.295,291.230,222.797,236.099
0.211,20.404,5.343,5.343,291.333,222.730,236.093
0.212,20.521,5.385,5.385,291.431,222.666,236.084
0.214,20.632,5.420,5.420,291.525,222.608,236.075
0.215,20.736,5.450,5.450,291.614,222.554,236.065
0.216,20.833,5.474,5.474,291.697,222.507,236.056
0.218,20.920,5.495,5.495,291.775,222.467,236.050
0.219,20.999,5.513,5.514,291.846,222.433,236.046
0.220,21.069,5.530,5.530,291.911,222.406,236.044
0.222,21.132,5.546,5.546,291.969,222.384,236.045
0.223,21.187,5.562,5.562,292.022,222.368,236.047
0.224,21.236,5.579,5.579,292.069,222.355,236.051
0.226,21.278,5.596,5.596,292.110,222.346,236.056
0.227,21.315,5.613,5.613,292.145,222.339,236.061
0.228,21.346,5.629,5.629,292.175,222.335,236.067
0.230,21.371,5.643,5.643,292.200,222.332,236.073
0.231,21.391,5.655,5.655,292.219,222.330,236.078
0.232,21.406,5.665,5.665,292.234,222.327,236.083
0.234,21.417,5.671,5.671,292.243,222.324,236.086
0.235,21.424,5.675,5.675,292.249,222.321,236.089
0.236,21.429,5.677,5.677,292.252,222.318,236.091
0.237,21.433,5.677,5.678,292.254,222.315,236.091
0.239,21.436,5.676,5.677,292.255,222.312,236.091
0.240,21.439,5.675,5.675,292.256,222.309,236.089
0.241,21.443,5.674,5.674,292.258,222.308,236.086
0.243,21.449,5.673,5.673,292.263,222.308,236.083
0.244,21.459,5.673,5.673,292.271,222.308,236.078
0.245,21.473,5.674,5.673,292.284,222.310,236.072
0.247,21.493,5.676,5.674,292.302,222.314,236.064
0.248,21.519,5.679,5.677,292.326,222.320,236.056
0.249,21.550,5.682,5.680,292.355,222.326,236.047
0.251,21.584,5.686,5.684,292.388,222.332,236.038
0.252,21.622,5.690,5.689,292.424,222.337,236.029
0.253,21.662,5.695,5.696,292.463,222.341,236.020
0.255,21.702,5.699,5.703,292.502,222.343,236.012
0.256,21.742,5.704,5.711,292.542,222.342,236.004
0.257,21.782,5.709,5.720,292.580,222.336,235.999
0.259,21.820,5.715,5.729,292.618,222.326,235.995
0.260,21.858,5.721,5.738,292.652,222.311,235.993
0.261,21.896,5.728,5.747,292.683,222.289,235.994
0.263,21.935,5.736,5.756,292.710,222.261,235.998
0.264,21.976,5.744,5.764,292.732,222.228,236.004
0.265,22.018,5.752,5.772,292.752,222.190,236.012
0.266,22.063,5.761,5.779,292.768,222.150,236.021
0.268,22.108,5.770,5.785,292.782,222.109,236.032
0.269,22.153,5.778,5.791,292.793,222.067,236.044
0.270,22.197,5.785,5.796,292.803,222.026,236.056
0.272,22.238,5.792,5.800,292.811,221.987,236.069
0.273,22.277,5.798,5.803,292.818,221.951,236.081
0.274,22.310,5.802,5.805,292.824,221.921,236.093
0.276,22.338,5.805,5.806,292.830,221.896,236.104
0.277,22.360,5.806,5.806,292.836,221.877,236.114
0.278,22.379,5.807,5.806,292.842,221.862,236.124
0.280,22.396,5.807,5.805,292.851,221.851,236.133
0.281,22.414,5.805,5.804,292.861,221.840,236.143
0.282,22.434,5.803,5.803,292.873,221.828,236.153
0.284,22.459,5.800,5.801,292.889,221.813,236.165
0.285,22.489,5.797,5.799,292.909,221.794,236.178
0.286,22.528,5.794,5.798,292.932,221.768,236.194
0.288,22.576,5.792,5.798,292.961,221.734,236.212
0.289,22.636,5.791,5.800,292.996,221.689,236.233
0.290,22.709,5.793,5.803,293.036,221.633,236.258
0.292,22.796,5.797,5.809,293.083,221.565,236.286
0.293,22.894,5.804,5.818,293.133,221.488,236.318
0.294,22.999,5.816,5.830,293.185,221.403,236.353
0.296,23.109,5.829,5.843,293.237,221.315,236.392
0.297,23.219,5.844,5.857,293.286,221.226,236.434
0.298,23.326,5.857,5.869,293.330,221.139,236.478
0.299,23.428,5.868,5.878,293.368,221.056,236.526
0.301,23.523,5.875,5.881,293.397,220.982,236.576
0.302,23.608,5.875,5.878,293.415,220.917,236.628
0.303,23.683,5.868,5.866,293.420,220.866,236.683
0.305,23.750,5.852,5.846,293.409,220.831,236.740
0.306,23.816,5.828,5.817,293.385,220.813,236.798
0.307,23.883,5.797,5.782,293.354,220.807,236.856
0.309,23.947,5.759,5.742,293.323,220.809,236.914
0.310,24.007,5.714,5.698,293.301,220.815,236.968
0.311,24.059,5.664,5.651,293.295,220.822,237.019
0.313,24.108,5.608,5.604,293.312,220.823,237.065
0.314,24.170,5.547,5.556,293.360,220.816,237.105
0.315,24.264,5.481,5.508,293.446,220.796,237.136
0.317,24.403,5.409,5.456,293.578,220.758,237.158
0.318,24.598,5.331,5.399,293.764,220.699,237.170
0.319,24.859,5.246,5.335,294.010,220.614,237.170
0.321,25.187,5.153,5.260,294.318,220.502,237.158
0.322,25.571,5.050,5.172,294.677,220.367,237.135
0.323,25.998,4.939,5.070,295.075,220.216,237.104
0.325,26.455,4.818,4.951,295.500,220.051,237.066
0.326,26.930,4.690,4.821,295.940,219.878,237.024
0.327,27.409,4.561,4.685,296.384,219.702,236.979
0.328,27.881,4.433,4.549,296.819,219.528,236.932
0.330,28.332,4.311,4.419,297.235,219.360,236.887
0.331,28.748,4.198,4.300,297.619,219.204,236.845
0.332,29.119,4.100,4.199,297.960,219.064,236.807
0.334,29.430,4.019,4.120,298.246,218.944,236.776
0.335,29.677,3.957,4.067,298.472,218.847,236.752
0.336,29.869,3.911,4.034,298.646,218.769,236.735
0.338,30.016,3.880,4.017,298.777,218.705,236.723
0.339,30.126,3.859,4.012,298.873,218.650,236.716
0.340,30.210,3.846,4.014,298.941,218.602,236.712
0.342,30.278,3.839,4.019,298.990,218.554,236.711
0.343,30.342,3.834,4.021,299.030,218.504,236.712
0.344,30.410,3.829,4.017,299.067,218.447,236.713
0.346,30.491,3.824,4.006,299.110,218.378,236.714
0.347,30.593,3.819,3.991,299.167,218.294,236.713
0.348,30.725,3.817,3.975,299.247,218.189,236.711
0.350,30.889,3.817,3.960,299.353,218.064,236.706
0.351,31.080,3.823,3.948,299.481,217.922,236.698
0.352,31.292,3.834,3.942,299.626,217.767,236.690
0.354,31.518,3.852,3.944,299.782,217.604,236.680
0.355,31.753,3.878,3.956,299.946,217.437,236.670
0.356,31.988,3.910,3.977,300.111,217.270,236.661
0.358,32.219,3.945,4.003,300.275,217.107,236.652
0.359,32.438,3.983,4.033,300.431,216.954,236.645
0.360,32.639,4.021,4.064,300.574,216.813,236.641
0.361,32.816,4.056,4.094,300.701,216.690,236.639
0.363,32.962,4.087,4.119,300.806,216.588,236.640
0.364,33.075,4.111,4.138,300.887,216.510,236.645
0.365,33.160,4.127,4.150,300.949,216.451,236.653
0.367,33.222,4.138,4.156,300.993,216.410,236.664
0.368,33.265,4.144,4.158,301.024,216.382,236.677
0.369,33.296,4.147,4.157,301.045,216.365,236.692
0.371,33.320,4.148,4.154,301.059,216.355,236.709
0.372,33.341,4.148,4.151,301.071,216.349,236.726
0.373,33.363,4.150,4.150,301.082,216.345,236.743
0.375,33.387,4.153,4.152,301.098,216.338,236.761
0.376,33.418,4.159,4.157,301.121,216.327,236.778
0.377,33.460,4.168,4.165,301.154,216.307,236.794
0.379,33.517,4.178,4.176,301.200,216.277,236.809
0.380,33.586,4.191,4.189,301.255,216.238,236.823
0.381,33.666,4.205,4.204,301.320,216.193,236.836
0.383,33.756,4.221,4.221,301.392,216.141,236.849
0.384,33.852,4.239,4.239,301.469,216.085,236.861
0.385,33.953,4.257,4.257,301.550,216.026,236.874
0.387,34.057,4.277,4.277,301.633,215.964,236.886
0.388,34.162,4.297,4.297,301.717,215.903,236.899
0.389,34.265,4.318,4.318,301.799,215.842,236.912
0.391,34.364,4.340,4.339,301.878,215.783,236.926
0.392,34.458,4.362,4.361,301.953,215.728,236.941
0.393,34.545,4.384,4.383,302.022,215.677,236.957
0.394,34.625,4.406,4.406,302.085,215.631,236.974
0.396,34.698,4.428,4.429,302.142,215.589,236.990
0.397,34.762,4.449,4.451,302.193,215.552,237.005
0.398,34.819,4.469,4.471,302.238,215.521,237.019
0.400,34.867,4.487,4.490,302.276,215.495,237.031
0.401,34.906,4.503,4.506,302.308,215.474,237.040
0.402,34.936,4.517,4.519,302.333,215.459,237.046
0.404,34.957,4.527,4.528,302.352,215.450,237.049
0.405,34.970,4.535,4.532,302.364,215.447,237.047
0.406,34.978,4.539,4.533,302.369,215.449,237.041
0.408,34.992,4.541,4.531,302.368,215.458,237.031
0.409,35.009,4.541,4.529,302.364,215.469,237.018
0.410,35.028,4.539,4.526,302.358,215.481,237.005
0.412,35.043,4.538,4.526,302.354,215.492,236.995
0.413,35.053,4.537,4.530,302.354,215.500,236.989
0.414,35.059,4.537,4.538,302.359,215.501,236.989
0.416,35.077,4.538,4.551,302.374,215.494,236.997
0.417,35.113,4.542,4.570,302.399,215.477,237.016
0.418,35.172,4.548,4.594,302.438,215.447,237.048
0.420,35.257,4.557,4.621,302.493,215.402,237.095
0.421,35.372,4.570,4.651,302.567,215.340,237.158
0.422,35.517,4.586,4.682,302.658,215.261,237.238
0.423,35.685,4.608,4.714,302.763,215.168,237.331
0.425,35.869,4.634,4.747,302.877,215.066,237.434
0.426,36.063,4.664,4.779,302.995,214.957,237.542
0.427,36.261,4.696,4.811,303.114,214.845,237.653
0.429,36.455,4.728,4.842,303.229,214.733,237.762
0.430,36.639,4.759,4.872,303.336,214.625,237.866
0.431,36.806,4.785,4.902,303.429,214.525,237.962
0.433,36.950,4.805,4.931,303.506,214.436,238.046
0.434,37.065,4.816,4.959,303.560,214.361,238.114
0.435,37.145,4.817,4.985,303.589,214.304,238.163
0.437,37.194,4.810,5.010,303.592,214.265,238.192
0.438,37.225,4.795,5.032,303.578,214.241,238.205
0.439,37.253,4.776,5.051,303.555,214.226,238.207
0.441,37.281,4.754,5.064,303.529,214.219,238.199
0.442,37.304,4.733,5.072,303.509,214.214,238.187
0.443,37.320,4.714,5.073,303.503,214.208,238.174
0.445,37.342,4.699,5.066,303.518,214.196,238.163
0.446,37.391,4.692,5.051,303.562,214.176,238.159
0.447,37.479,4.692,5.033,303.643,214.142,238.164
0.449,37.616,4.702,5.015,303.769,214.092,238.184
0.450,37.811,4.721,5.001,303.947,214.021,238.221
0.451,38.064,4.752,4.997,304.177,213.929,238.276
0.453,38.365,4.795,5.005,304.448,213.821,238.346
0.454,38.701,4.851,5.031,304.751,213.700,238.428
0.455,39.062,4.922,5.079,305.075,213.571,238.519
0.456,39.435,5.005,5.147,305.410,213.438,238.615
0.458,39.809,5.097,5.230,305.746,213.306,238.715
0.459,40.173,5.191,5.320,306.072,213.179,238.814
0.460,40.515,5.285,5.411,306.378,213.061,238.909
0.462,40.823,5.372,5.496,306.654,212.956,238.998
0.463,41.086,5.449,5.569,306.890,212.870,239.078
0.464,41.293,5.510,5.623,307.075,212.805,239.144
0.466,41.442,5.551,5.652,307.208,212.763,239.197
0.467,41.539,5.574,5.658,307.294,212.740,239.236
0.468,41.593,5.582,5.645,307.340,212.733,239.263
0.470,41.614,5.577,5.620,307.353,212.738,239.278
0.471,41.633,5.562,5.588,307.340,212.752,239.282
0.472,41.671,5.541,5.552,307.307,212.770,239.277
0.474,41.723,5.517,5.519,307.262,212.790,239.262
0.475,41.783,5.492,5.493,307.210,212.808,239.238
0.476,41.844,5.470,5.478,307.158,212.820,239.208
0.478,41.903,5.451,5.474,307.114,212.822,239.170
0.479,41.957,5.436,5.479,307.083,212.811,239.126
0.480,42.014,5.426,5.492,307.069,212.787,239.077
0.482,42.079,5.422,5.513,307.073,212.752,239.022
0.483,42.157,5.424,5.540,307.094,212.709,238.960
0.484,42.249,5.434,5.572,307.132,212.660,238.893
0.485,42.356,5.451,5.607,307.187,212.607,238.818
0.487,42.477,5.477,5.646,307.260,212.554,238.738
0.488,42.613,5.509,5.686,307.351,212.503,238.650
0.489,42.764,5.547,5.727,307.459,212.457,238.555
0.491,42.930,5.588,5.766,307.584,212.419,238.453
0.492,43.112,5.632,5.804,307.727,212.390,238.343
0.493,43.312,5.677,5.838,307.887,212.373,238.225
0.495,43.527,5.721,5.868,308.063,212.369,238.101
0.496,43.757,5.764,5.892,308.252,212.375,237.971
0.497,43.997,5.805,5.913,308.452,212.388,237.838
0.499,44.244,5.842,5.930,308.658,212.406,237.704
0.500,44.495,5.877,5.947,308.870,212.426,237.569
0.501,44.747,5.907,5.965,309.082,212.446,237.437
0.503,44.995,5.934,5.986,309.294,212.462,237.309
0.504,45.236,5.955,6.011,309.501,212.473,237.186
0.505,45.466,5.972,6.043,309.701,212.475,237.071
0.507,45.684,5.983,6.083,309.891,212.466,236.965
0.508,45.886,5.990,6.127,310.068,212.443,236.871
0.509,46.073,5.996,6.175,310.231,212.407,236.788
0.511,46.245,6.001,6.224,310.381,212.360,236.716
0.512,46.404,6.008,6.272,310.516,212.303,236.654
0.513,46.552,6.017,6.317,310.639,212.240,236.603
0.515,46.688,6.032,6.356,310.749,212.172,236.560
0.516,46.813,6.052,6.387,310.847,212.103,236.525
0.517,46.927,6.079,6.410,310.933,212.034,236.498
0.518,47.028,6.111,6.425,311.007,211.967,236.478
0.520,47.118,6.145,6.435,311.071,211.905,236.465
0.521,47.194,6.179,6.441,311.123,211.851,236.457
0.522,47.255,6.213,6.442,311.165,211.807,236.454
0.524,47.303,6.243,6.442,311.198,211.772,236.455
0.525,47.341,6.268,6.441,311.223,211.744,236.459
0.526,47.371,6.286,6.440,311.243,211.721,236.464
0.528,47.397,6.298,6.439,311.258,211.702,236.471
0.529,47.420,6.305,6.439,311.270,211.682,236.477
0.530,47.445,6.309,6.440,311.281,211.661,236.482
0.532,47.473,6.309,6.442,311.293,211.636,236.485
0.533,47.508,6.308,6.445,311.308,211.604,236.484
0.534,47.553,6.306,6.448,311.326,211.563,236.478
0.536,47.611,6.305,6.453,311.350,211.512,236.466
0.537,47.685,6.305,6.459,311.382,211.447,236.448
