"T","Distance","Radius","FreeRadius","X","Y","Z"
0.000,0.000,1.915,1.915,-24.377,116.640,162.159
0.001,0.426,2.115,2.115,-24.204,117.011,162.278
0.003,0.849,2.313,2.313,-24.032,117.379,162.396
0.004,1.265,2.507,2.507,-23.859,117.740,162.511
0.005,1.671,2.695,2.695,-23.686,118.090,162.621
0.006,2.064,2.874,2.874,-23.514,118.427,162.726
0.008,2.440,3.042,3.042,-23.342,118.748,162.822
0.009,2.797,3.198,3.198,-23.170,119.048,162.910
0.010,3.131,3.339,3.339,-22.998,119.324,162.987
0.012,3.441,3.464,3.464,-22.826,119.573,163.052
0.013,3.724,3.576,3.576,-22.654,119.792,163.103
0.014,3.978,3.677,3.677,-22.483,119.977,163.139
0.016,4.205,3.770,3.770,-22.312,120.125,163.159
0.017,4.407,3.858,3.858,-22.141,120.232,163.161
0.018,4.591,3.944,3.944,-21.972,120.300,163.145
0.019,4.764,4.029,4.029,-21.804,120.333,163.114
0.021,4.934,4.117,4.117,-21.640,120.336,163.070
0.022,5.104,4.208,4.208,-21.481,120.314,163.015
0.023,5.275,4.299,4.299,-21.327,120.270,162.953
0.025,5.448,4.388,4.388,-21.180,120.211,162.885
0.026,5.619,4.471,4.471,-21.042,120.139,162.814
0.027,5.787,4.546,4.546,-20.913,120.061,162.742
0.028,5.946,4.609,4.609,-20.794,119.981,162.671
0.030,6.095,4.659,4.659,-20.687,119.902,162.604
0.031,6.227,4.692,4.692,-20.593,119.831,162.543
0.032,6.340,4.709,4.709,-20.514,119.772,162.491
0.034,6.429,4.714,4.714,-20.449,119.727,162.449
0.035,6.496,4.710,4.710,-20.398,119.696,162.417
0.036,6.545,4.702,4.702,-20.359,119.678,162.394
0.038,6.577,4.692,4.692,-20.332,119.669,162.380
0.039,6.595,4.684,4.684,-20.315,119.669,162.374
0.040,6.605,4.682,4.682,-20.306,119.674,162.375
0.041,6.618,4.689,4.689,-20.305,119.685,162.382
0.043,6.637,4.704,4.704,-20.310,119.698,162.396
0.044,6.662,4.724,4.724,-20.319,119.711,162.415
0.045,6.692,4.747,4.747,-20.332,119.724,162.438
0.047,6.724,4.769,4.769,-20.347,119.733,162.465
0.048,6.758,4.787,4.787,-20.363,119.737,162.495
0.049,6.795,4.799,4.799,-20.378,119.735,162.528
0.051,6.834,4.803,4.803,-20.392,119.726,162.564
0.052,6.879,4.795,4.795,-20.402,119.712,162.605
0.053,6.930,4.776,4.776,-20.408,119.695,162.653
0.054,6.990,4.749,4.749,-20.408,119.675,162.710
0.056,7.061,4.715,4.715,-20.401,119.654,162.776
0.057,7.143,4.676,4.676,-20.386,119.633,162.855
0.058,7.241,4.633,4.633,-20.361,119.615,162.947
0.060,7.356,4.587,4.587,-20.324,119.600,163.055
0.061,7.490,4.541,4.541,-20.275,119.589,163.180
0.062,7.647,4.496,4.496,-20.213,119.585,163.324
0.063,7.829,4.452,4.452,-20.135,119.588,163.488
0.065,8.038,4.410,4.410,-20.041,119.601,163.674
0.066,8.275,4.371,4.371,-19.930,119.622,163.883
0.067,8.536,4.335,4.335,-19.805,119.653,164.110
0.069,8.816,4.304,4.304,-19.669,119.691,164.351
0.070,9.108,4.277,4.277,-19.523,119.735,164.601
0.071,9.409,4.256,4.256,-19.372,119.785,164.856
0.073,9.712,4.240,4.240,-19.218,119.839,165.111
0.074,10.012,4.229,4.229,-19.063,119.895,165.362
0.075,10.304,4.220,4.220,-18.910,119.953,165.604
0.076,10.582,4.213,4.213,-18.763,120.011,165.833
0.078,10.842,4.206,4.206,-18.624,120.069,166.044
0.079,11.077,4.199,4.198,-18.495,120.125,166.233
0.080,11.283,4.189,4.189,-18.379,120.178,166.395
0.082,11.455,4.176,4.176,-18.279,120.226,166.527
0.083,11.595,4.160,4.160,-18.195,120.270,166.629
0.084,11.705,4.143,4.143,-18.125,120.311,166.704
0.085,11.792,4.125,4.126,-18.067,120.347,166.757
0.087,11.859,4.109,4.109,-18.020,120.381,166.790
0.088,11.911,4.095,4.096,-17.981,120.412,166.807
0.089,11.954,4.086,4.086,-17.950,120.441,166.812
0.091,11.991,4.082,4.082,-17.924,120.468,166.808
0.092,12.026,4.084,4.084,-17.902,120.493,166.798
0.093,12.060,4.093,4.092,-17.882,120.517,166.786
0.095,12.092,4.105,4.104,-17.862,120.540,166.776
0.096,12.124,4.120,4.118,-17.841,120.563,166.771
0.097,12.157,4.136,4.133,-17.817,120.587,166.774
0.098,12.197,4.150,4.148,-17.789,120.611,166.788
0.100,12.245,4.161,4.160,-17.754,120.637,166.810
0.101,12.305,4.167,4.168,-17.713,120.667,166.841
0.102,12.376,4.168,4.170,-17.664,120.703,166.878
0.104,12.461,4.166,4.170,-17.605,120.746,166.921
0.105,12.559,4.163,4.169,-17.536,120.797,166.968
0.106,12.673,4.162,4.169,-17.454,120.859,167.018
0.108,12.803,4.166,4.174,-17.360,120.933,167.069
0.109,12.952,4.178,4.185,-17.251,121.020,167.121
0.110,13.120,4.200,4.204,-17.127,121.122,167.171
0.111,13.310,4.236,4.235,-16.986,121.240,167.220
0.113,13.525,4.287,4.278,-16.827,121.376,167.265
0.114,13.765,4.350,4.333,-16.649,121.532,167.305
0.115,14.026,4.423,4.399,-16.455,121.704,167.341
0.117,14.305,4.504,4.474,-16.249,121.890,167.372
0.118,14.596,4.589,4.559,-16.035,122.084,167.401
0.119,14.894,4.676,4.651,-15.816,122.285,167.427
0.120,15.192,4.762,4.751,-15.598,122.487,167.452
0.122,15.487,4.846,4.856,-15.384,122.688,167.475
0.123,15.772,4.924,4.966,-15.177,122.883,167.497
0.124,16.042,4.998,5.076,-14.983,123.069,167.520
0.126,16.292,5.065,5.184,-14.804,123.242,167.543
0.127,16.516,5.126,5.286,-14.645,123.398,167.568
0.128,16.709,5.180,5.380,-14.510,123.534,167.594
0.130,16.867,5.227,5.461,-14.403,123.646,167.623
0.131,16.989,5.265,5.527,-14.324,123.733,167.655
0.132,17.078,5.295,5.574,-14.272,123.797,167.690
0.133,17.143,5.317,5.604,-14.243,123.842,167.726
0.135,17.190,5.333,5.618,-14.233,123.869,167.763
0.136,17.231,5.343,5.619,-14.240,123.882,167.802
0.137,17.274,5.350,5.611,-14.260,123.883,167.840
0.139,17.324,5.354,5.595,-14.291,123.875,167.878
0.140,17.379,5.356,5.576,-14.329,123.860,167.915
0.141,17.437,5.359,5.555,-14.371,123.842,167.951
0.142,17.495,5.363,5.535,-14.414,123.823,167.985
0.144,17.550,5.369,5.517,-14.455,123.806,168.016
0.145,17.597,5.376,5.501,-14.491,123.793,168.045
0.146,17.635,5.383,5.486,-14.519,123.787,168.070
0.148,17.665,5.391,5.474,-14.539,123.789,168.092
0.149,17.691,5.399,5.464,-14.552,123.798,168.112
0.150,17.717,5.407,5.456,-14.559,123.816,168.129
0.152,17.748,5.415,5.450,-14.561,123.843,168.145
0.153,17.787,5.422,5.446,-14.559,123.879,168.159
0.154,17.835,5.428,5.444,-14.554,123.925,168.172
0.155,17.892,5.434,5.443,-14.545,123.980,168.185
0.157,17.960,5.438,5.444,-14.536,124.046,168.198
0.158,18.039,5.443,5.446,-14.525,124.123,168.212
0.159,18.128,5.446,5.449,-14.514,124.210,168.227
0.161,18.229,5.449,5.452,-14.504,124.309,168.243
0.162,18.341,5.452,5.455,-14.496,124.420,168.261
0.163,18.465,5.454,5.458,-14.490,124.542,168.280
0.165,18.597,5.456,5.461,-14.485,124.672,168.301
0.166,18.736,5.457,5.464,-14.482,124.810,168.321
0.167,18.880,5.458,5.466,-14.480,124.952,168.341
0.168,19.026,5.459,5.467,-14.479,125.097,168.359
0.170,19.172,5.460,5.468,-14.478,125.243,168.375
0.171,19.317,5.460,5.468,-14.476,125.387,168.388
0.172,19.458,5.460,5.466,-14.475,125.527,168.396
0.174,19.593,5.459,5.463,-14.472,125.662,168.400
0.175,19.720,5.458,5.460,-14.469,125.790,168.399
0.176,19.838,5.457,5.457,-14.464,125.907,168.390
0.177,19.945,5.454,5.454,-14.457,126.013,168.375
0.179,20.041,5.451,5.451,-14.448,126.105,168.352
0.180,20.127,5.447,5.450,-14.438,126.185,168.321
0.181,20.205,5.442,5.451,-14.427,126.253,168.284
0.183,20.277,5.435,5.453,-14.415,126.310,168.242
0.184,20.346,5.427,5.457,-14.403,126.358,168.195
0.185,20.411,5.418,5.462,-14.391,126.398,168.144
0.187,20.475,5.410,5.468,-14.380,126.430,168.090
0.188,20.538,5.402,5.472,-14.371,126.456,168.033
0.189,20.600,5.394,5.476,-14.363,126.477,167.976
0.190,20.661,5.388,5.477,-14.358,126.494,167.917
0.192,20.721,5.384,5.476,-14.356,126.507,167.859
0.193,20.779,5.383,5.471,-14.357,126.519,167.802
0.194,20.836,5.382,5.463,-14.362,126.530,167.747
0.196,20.890,5.383,5.452,-14.369,126.542,167.694
0.197,20.941,5.384,5.440,-14.377,126.555,167.645
0.198,20.989,5.384,5.426,-14.384,126.571,167.601
0.199,21.033,5.382,5.411,-14.386,126.593,167.562
0.201,21.076,5.377,5.396,-14.382,126.620,167.529
0.202,21.121,5.370,5.382,-14.369,126.655,167.504
0.203,21.174,5.357,5.368,-14.346,126.699,167.486
0.205,21.240,5.340,5.353,-14.309,126.753,167.478
0.206,21.324,5.317,5.336,-14.257,126.819,167.480
0.207,21.431,5.287,5.313,-14.187,126.898,167.493
0.209,21.563,5.249,5.283,-14.097,126.992,167.517
0.210,21.724,5.203,5.245,-13.985,127.102,167.554
0.211,21.916,5.147,5.195,-13.849,127.229,167.604
0.212,22.136,5.081,5.133,-13.693,127.370,167.666
0.214,22.379,5.005,5.058,-13.519,127.523,167.738
0.215,22.641,4.922,4.973,-13.330,127.685,167.821
0.216,22.918,4.836,4.882,-13.130,127.854,167.912
0.218,23.207,4.748,4.790,-12.920,128.027,168.010
0.219,23.503,4.664,4.699,-12.706,128.202,168.114
0.220,23.802,4.585,4.613,-12.488,128.375,168.223
0.222,24.099,4.515,4.537,-12.271,128.546,168.336
0.223,24.392,4.458,4.474,-12.058,128.709,168.451
0.224,24.676,4.414,4.426,-11.851,128.865,168.567
0.225,24.946,4.383,4.391,-11.653,129.009,168.683
0.227,25.200,4.363,4.369,-11.468,129.139,168.799
0.228,25.437,4.355,4.358,-11.297,129.255,168.912
0.229,25.656,4.356,4.358,-11.138,129.358,169.023
0.231,25.860,4.367,4.368,-10.991,129.450,169.131
0.232,26.049,4.386,4.386,-10.856,129.531,169.236
0.233,26.224,4.412,4.412,-10.732,129.602,169.337
0.234,26.385,4.445,4.444,-10.620,129.664,169.433
0.236,26.533,4.481,4.481,-10.517,129.719,169.526
0.237,26.669,4.520,4.520,-10.425,129.768,169.613
0.238,26.793,4.559,4.561,-10.342,129.811,169.694
0.240,26.906,4.598,4.601,-10.268,129.849,169.769
0.241,27.007,4.634,4.640,-10.202,129.884,169.838
0.242,27.098,4.665,4.675,-10.144,129.917,169.900
0.244,27.178,4.690,4.704,-10.094,129.948,169.955
0.245,27.249,4.709,4.729,-10.051,129.978,170.002
0.246,27.311,4.724,4.748,-10.014,130.006,170.043
0.247,27.364,4.733,4.763,-9.983,130.032,170.077
0.249,27.408,4.739,4.774,-9.957,130.056,170.105
0.250,27.445,4.743,4.781,-9.936,130.077,170.127
0.251,27.475,4.743,4.783,-9.919,130.096,170.142
0.253,27.499,4.743,4.783,-9.906,130.112,170.153
0.254,27.516,4.742,4.779,-9.896,130.126,170.158
0.255,27.529,4.740,4.773,-9.889,130.136,170.158
0.256,27.539,4.738,4.766,-9.883,130.143,170.153
0.258,27.550,4.736,4.757,-9.879,130.147,170.144
0.259,27.564,4.734,4.749,-9.876,130.148,170.130
0.260,27.581,4.732,4.741,-9.874,130.146,170.114
0.262,27.598,4.731,4.735,-9.872,130.143,170.097
0.263,27.615,4.732,4.731,-9.870,130.141,170.080
0.264,27.629,4.733,4.729,-9.868,130.140,170.067
0.266,27.639,4.734,4.729,-9.865,130.142,170.058
0.267,27.647,4.735,4.730,-9.861,130.149,170.055
0.268,27.662,4.735,4.731,-9.857,130.162,170.061
0.269,27.688,4.734,4.731,-9.851,130.183,170.078
0.271,27.730,4.730,4.728,-9.844,130.212,170.106
0.272,27.788,4.723,4.723,-9.835,130.251,170.148
0.273,27.866,4.713,4.714,-9.825,130.302,170.206
0.275,27.966,4.700,4.701,-9.811,130.366,170.282
0.276,28.089,4.684,4.685,-9.796,130.443,170.376
0.277,28.230,4.668,4.669,-9.777,130.532,170.485
0.278,28.389,4.652,4.653,-9.756,130.631,170.607
0.280,28.561,4.639,4.639,-9.731,130.738,170.739
0.281,28.743,4.628,4.629,-9.704,130.852,170.879
0.282,28.933,4.622,4.622,-9.672,130.971,171.023
0.284,29.127,4.622,4.622,-9.637,131.094,171.169
0.285,29.322,4.628,4.627,-9.598,131.218,171.315
0.286,29.516,4.638,4.638,-9.555,131.342,171.458
0.288,29.706,4.652,4.652,-9.508,131.464,171.595
0.289,29.888,4.669,4.669,-9.456,131.583,171.723
0.290,30.061,4.688,4.688,-9.400,131.697,171.840
0.291,30.222,4.709,4.709,-9.338,131.805,171.943
0.293,30.374,4.729,4.729,-9.273,131.907,172.034
0.294,30.517,4.750,4.750,-9.204,132.004,172.113
0.295,30.655,4.769,4.769,-9.132,132.099,172.183
0.297,30.789,4.787,4.787,-9.058,132.192,172.244
0.298,30.920,4.805,4.805,-8.984,132.286,172.300
0.299,31.051,4.822,4.821,-8.909,132.380,172.350
0.301,31.182,4.837,4.837,-8.834,132.478,172.397
0.302,31.315,4.852,4.851,-8.761,132.579,172.442
0.303,31.452,4.865,4.865,-8.690,132.687,172.487
0.304,31.592,4.877,4.877,-8.622,132.801,172.533
0.306,31.740,4.889,4.889,-8.558,132.924,172.583
0.307,31.895,4.901,4.902,-8.498,133.056,172.637
0.308,32.058,4.915,4.916,-8.443,133.198,172.696
0.310,32.228,4.930,4.931,-8.393,133.348,172.760
0.311,32.404,4.948,4.949,-8.347,133.503,172.826
0.312,32.582,4.969,4.970,-8.305,133.662,172.895
0.313,32.760,4.995,4.995,-8.268,133.822,172.965
0.315,32.938,5.025,5.024,-8.233,133.981,173.035
0.316,33.112,5.058,5.056,-8.202,134.138,173.104
0.317,33.280,5.093,5.090,-8.174,134.289,173.172
0.319,33.440,5.130,5.126,-8.150,134.434,173.236
0.320,33.590,5.165,5.161,-8.127,134.569,173.297
0.321,33.727,5.200,5.196,-8.107,134.692,173.353
0.323,33.849,5.231,5.230,-8.089,134.803,173.403
0.324,33.955,5.259,5.261,-8.073,134.898,173.446
0.325,34.046,5.282,5.288,-8.058,134.979,173.483
0.326,34.123,5.302,5.313,-8.044,135.049,173.513
0.328,34.188,5.317,5.335,-8.029,135.108,173.537
0.329,34.245,5.330,5.353,-8.013,135.159,173.554
0.330,34.294,5.340,5.369,-7.995,135.204,173.566
0.332,34.340,5.347,5.382,-7.974,135.244,173.571
0.333,34.384,5.352,5.392,-7.950,135.281,173.571
0.334,34.430,5.356,5.399,-7.921,135.318,173.565
0.335,34.482,5.358,5.404,-7.888,135.355,173.554
0.337,34.540,5.360,5.408,-7.849,135.395,173.538
0.338,34.608,5.362,5.411,-7.804,135.440,173.516
0.339,34.686,5.365,5.414,-7.751,135.492,173.490
0.341,34.774,5.369,5.419,-7.692,135.550,173.459
0.342,34.872,5.375,5.426,-7.627,135.614,173.425
0.343,34.976,5.384,5.436,-7.557,135.682,173.388
0.345,35.084,5.396,5.449,-7.485,135.753,173.349
0.346,35.196,5.411,5.466,-7.411,135.827,173.310
0.347,35.308,5.428,5.484,-7.337,135.901,173.271
0.348,35.418,5.446,5.503,-7.264,135.974,173.233
0.350,35.526,5.464,5.522,-7.192,136.046,173.197
0.351,35.628,5.482,5.539,-7.125,136.116,173.164
0.352,35.723,5.498,5.554,-7.062,136.181,173.134
0.354,35.809,5.512,5.565,-7.006,136.241,173.109
0.355,35.884,5.524,5.572,-6.957,136.294,173.090
0.356,35.947,5.533,5.575,-6.916,136.340,173.077
0.358,36.000,5.540,5.576,-6.882,136.380,173.070
0.359,36.044,5.546,5.576,-6.854,136.414,173.069
0.360,36.083,5.550,5.575,-6.830,136.445,173.074
0.361,36.119,5.554,5.575,-6.809,136.472,173.084
0.363,36.155,5.556,5.577,-6.789,136.498,173.099
0.364,36.193,5.559,5.582,-6.769,136.523,173.120
0.365,36.235,5.562,5.590,-6.746,136.548,173.145
0.367,36.283,5.565,5.602,-6.721,136.575,173.175
0.368,36.338,5.569,5.616,-6.691,136.605,173.209
0.369,36.400,5.574,5.633,-6.654,136.639,173.247
0.370,36.473,5.580,5.652,-6.610,136.677,173.289
0.372,36.556,5.588,5.673,-6.556,136.722,173.335
0.373,36.650,5.597,5.696,-6.494,136.773,173.383
0.374,36.752,5.609,5.719,-6.424,136.829,173.433
0.376,36.859,5.622,5.743,-6.350,136.888,173.483
0.377,36.970,5.637,5.767,-6.272,136.949,173.531
0.378,37.081,5.652,5.788,-6.192,137.012,173.577
0.380,37.191,5.667,5.806,-6.111,137.075,173.618
0.381,37.297,5.681,5.820,-6.033,137.137,173.654
0.382,37.398,5.693,5.828,-5.957,137.196,173.682
0.383,37.490,5.704,5.829,-5.887,137.252,173.703
0.385,37.572,5.712,5.822,-5.824,137.304,173.713
0.386,37.644,5.717,5.809,-5.769,137.350,173.712
0.387,37.704,5.720,5.791,-5.725,137.389,173.699
0.389,37.757,5.722,5.772,-5.691,137.420,173.673
0.390,37.806,5.723,5.753,-5.667,137.445,173.639
0.391,37.851,5.724,5.738,-5.650,137.465,173.602
0.392,37.892,5.726,5.729,-5.637,137.480,173.566
0.394,37.926,5.729,5.728,-5.628,137.492,173.536
0.395,37.949,5.733,5.738,-5.619,137.503,173.517
0.396,37.963,5.739,5.759,-5.609,137.512,173.513
0.398,37.987,5.748,5.787,-5.595,137.522,173.531
0.399,38.035,5.758,5.821,-5.576,137.533,173.573
0.400,38.114,5.771,5.859,-5.549,137.547,173.645
0.402,38.229,5.785,5.900,-5.511,137.565,173.752
0.403,38.385,5.802,5.942,-5.462,137.588,173.899
0.404,38.588,5.820,5.982,-5.399,137.616,174.089
0.405,38.833,5.841,6.020,-5.322,137.651,174.320
0.407,39.113,5.865,6.055,-5.235,137.690,174.583
0.408,39.419,5.892,6.089,-5.139,137.732,174.871
0.409,39.745,5.923,6.121,-5.038,137.777,175.177
0.411,40.081,5.957,6.154,-4.933,137.823,175.493
0.412,40.419,5.997,6.186,-4.827,137.869,175.811
0.413,40.752,6.041,6.219,-4.723,137.914,176.124
0.415,41.071,6.091,6.253,-4.623,137.958,176.424
0.416,41.369,6.146,6.288,-4.529,137.998,176.703
0.417,41.637,6.204,6.324,-4.444,138.034,176.955
0.418,41.867,6.263,6.358,-4.370,138.065,177.171
0.420,42.052,6.319,6.390,-4.310,138.090,177.344
0.421,42.187,6.371,6.419,-4.265,138.107,177.470
0.422,42.279,6.416,6.442,-4.233,138.119,177.555
0.424,42.332,6.452,6.460,-4.213,138.126,177.604
0.425,42.354,6.476,6.470,-4.204,138.129,177.623
0.426,42.359,6.488,6.473,-4.202,138.129,177.619
0.427,42.383,6.491,6.471,-4.208,138.127,177.596
0.429,42.420,6.486,6.464,-4.219,138.123,177.560
0.430,42.465,6.477,6.456,-4.233,138.120,177.518
0.431,42.511,6.464,6.448,-4.250,138.117,177.475
0.433,42.553,6.451,6.441,-4.266,138.115,177.437
0.434,42.584,6.440,6.437,-4.281,138.117,177.409
0.435,42.601,6.432,6.438,-4.294,138.122,177.398
0.437,42.617,6.430,6.444,-4.301,138.131,177.409
0.438,42.652,6.431,6.455,-4.304,138.145,177.441
0.439,42.705,6.437,6.469,-4.303,138.162,177.492
0.440,42.774,6.448,6.487,-4.298,138.182,177.558
0.442,42.856,6.462,6.507,-4.289,138.205,177.636
0.443,42.949,6.480,6.529,-4.278,138.229,177.724
0.444,43.048,6.503,6.552,-4.264,138.255,177.819
0.446,43.151,6.529,6.576,-4.248,138.282,177.918
0.447,43.256,6.557,6.601,-4.230,138.308,178.017
0.448,43.359,6.587,6.624,-4.211,138.334,178.115
0.449,43.458,6.616,6.647,-4.191,138.359,178.209
0.451,43.549,6.644,6.667,-4.171,138.382,178.294
0.452,43.629,6.670,6.684,-4.151,138.403,178.369
0.453,43.699,6.692,6.698,-4.131,138.421,178.433
0.455,43.758,6.709,6.708,-4.111,138.437,178.487
0.456,43.809,6.719,6.713,-4.092,138.450,178.532
0.457,43.854,6.725,6.715,-4.072,138.460,178.571
0.459,43.894,6.728,6.716,-4.053,138.468,178.605
0.460,43.931,6.728,6.715,-4.034,138.474,178.636
0.461,43.966,6.728,6.716,-4.015,138.478,178.666
0.462,44.002,6.728,6.719,-3.996,138.480,178.697
0.464,44.040,6.731,6.726,-3.977,138.479,178.729
0.465,44.081,6.737,6.739,-3.957,138.477,178.766
0.466,44.128,6.747,6.757,-3.938,138.472,178.808
0.468,44.182,6.760,6.779,-3.918,138.466,178.857
0.469,44.244,6.775,6.805,-3.898,138.458,178.916
0.470,44.313,6.790,6.832,-3.878,138.449,178.982
0.472,44.390,6.805,6.860,-3.859,138.439,179.055
0.473,44.470,6.818,6.886,-3.840,138.429,179.133
0.474,44.554,6.829,6.909,-3.821,138.418,179.214
0.475,44.640,6.835,6.929,-3.804,138.408,179.297
0.477,44.726,6.838,6.944,-3.787,138.399,179.381
0.478,44.810,6.837,6.956,-3.772,138.391,179.463
0.479,44.891,6.835,6.965,-3.759,138.384,179.543
0.481,44.968,6.832,6.971,-3.748,138.380,179.619
0.482,45.039,6.828,6.976,-3.739,138.378,179.690
0.483,45.103,6.826,6.980,-3.732,138.379,179.753
0.484,45.158,6.827,6.983,-3.728,138.383,179.808
0.486,45.205,6.830,6.987,-3.726,138.391,179.854
0.487,45.244,6.836,6.992,-3.726,138.400,179.892
0.488,45.277,6.843,6.996,-3.727,138.411,179.924
0.490,45.305,6.851,7.001,-3.729,138.421,179.949
0.491,45.329,6.856,7.004,-3.730,138.431,179.971
0.492,45.348,6.859,7.005,-3.730,138.439,179.989
0.494,45.365,6.858,7.005,-3.729,138.444,180.004
0.495,45.379,6.851,7.003,-3.725,138.444,180.018
0.496,45.395,6.837,6.998,-3.719,138.440,180.032
0.497,45.416,6.818,6.991,-3.708,138.430,180.047
0.499,45.445,6.794,6.982,-3.694,138.412,180.064
0.500,45.482,6.768,6.971,-3.674,138.387,180.084
0.501,45.531,6.740,6.960,-3.648,138.353,180.108
0.503,45.591,6.713,6.948,-3.616,138.312,180.137
0.504,45.661,6.688,6.935,-3.575,138.267,180.173
0.505,45.742,6.666,6.923,-3.525,138.221,180.216
0.506,45.834,6.647,6.911,-3.465,138.175,180.268
0.508,45.938,6.631,6.897,-3.393,138.132,180.330
0.509,46.056,6.613,6.879,-3.307,138.096,180.402
0.510,46.190,6.591,6.855,-3.208,138.067,180.487
0.512,46.341,6.562,6.823,-3.094,138.049,180.585
0.513,46.514,6.523,6.781,-2.962,138.045,180.697
0.514,46.710,6.472,6.726,-2.814,138.056,180.824
0.516,46.933,6.405,6.656,-2.646,138.085,180.968
0.517,47.185,6.322,6.572,-2.458,138.135,181.129
0.518,47.466,6.228,6.477,-2.252,138.204,181.307
0.519,47.770,6.127,6.373,-2.031,138.291,181.497
0.521,48.092,6.023,6.265,-1.800,138.390,181.698
0.522,48.427,5.920,6.156,-1.562,138.500,181.906
0.523,48.768,5.824,6.050,-1.321,138.617,182.117
0.525,49.109,5.739,5.950,-1.082,138.737,182.329
0.526,49.445,5.668,5.860,-0.848,138.857,182.538
0.527,49.770,5.614,5.781,-0.623,138.974,182.741
0.528,50.078,5.574,5.713,-0.411,139.085,182.935
0.530,50.363,5.545,5.655,-0.217,139.187,183.117
0.531,50.619,5.526,5.605,-0.044,139.275,183.284
0.532,50.840,5.513,5.564,0.105,139.347,183.432
