"T","Distance","Radius","FreeRadius","X","Y","Z"
0.000,0.000,3.078,3.078,291.284,321.242,314.244
0.001,0.167,3.119,3.119,291.216,321.280,314.097
0.003,0.332,3.160,3.160,291.149,321.318,313.950
0.004,0.496,3.201,3.201,291.082,321.356,313.806
0.006,0.657,3.242,3.242,291.017,321.394,313.664
0.007,0.813,3.284,3.284,290.954,321.432,313.525
0.009,0.965,3.327,3.327,290.894,321.470,313.392
0.010,1.110,3.371,3.371,290.836,321.507,313.263
0.012,1.249,3.415,3.415,290.783,321.545,313.142
0.013,1.379,3.459,3.459,290.733,321.582,313.027
0.015,1.501,3.503,3.503,290.687,321.619,312.920
0.016,1.613,3.544,3.544,290.647,321.657,312.823
0.018,1.714,3.583,3.583,290.612,321.694,312.736
0.019,1.804,3.618,3.618,290.583,321.730,312.658
0.021,1.885,3.648,3.648,290.559,321.766,312.590
0.022,1.957,3.674,3.674,290.538,321.800,312.530
0.024,2.021,3.696,3.696,290.521,321.832,312.477
0.025,2.079,3.714,3.714,290.506,321.861,312.429
0.027,2.131,3.730,3.730,290.493,321.887,312.386
0.028,2.177,3.744,3.744,290.481,321.909,312.347
0.030,2.220,3.757,3.757,290.469,321.926,312.310
0.031,2.259,3.769,3.769,290.456,321.938,312.275
0.033,2.297,3.782,3.782,290.441,321.945,312.240
0.034,2.337,3.797,3.797,290.425,321.946,312.205
0.036,2.379,3.815,3.815,290.405,321.940,312.167
0.037,2.426,3.838,3.838,290.382,321.929,312.128
0.039,2.477,3.867,3.867,290.357,321.918,312.085
0.040,2.532,3.903,3.903,290.329,321.909,312.039
0.042,2.590,3.947,3.947,290.300,321.906,311.989
0.043,2.652,3.998,3.998,290.269,321.912,311.935
0.045,2.722,4.050,4.050,290.237,321.930,311.876
0.046,2.801,4.099,4.099,290.204,321.964,311.812
0.047,2.895,4.143,4.143,290.171,322.017,311.743
0.049,3.007,4.176,4.176,290.137,322.093,311.667
0.050,3.142,4.194,4.194,290.104,322.194,311.585
0.052,3.304,4.196,4.196,290.072,322.326,311.496
0.053,3.494,4.184,4.184,290.041,322.487,311.399
0.055,3.709,4.166,4.166,290.011,322.674,311.298
0.056,3.943,4.146,4.146,289.983,322.881,311.193
0.058,4.190,4.130,4.130,289.956,323.102,311.086
0.059,4.444,4.126,4.126,289.930,323.331,310.980
0.061,4.699,4.137,4.137,289.906,323.563,310.876
0.062,4.949,4.168,4.168,289.884,323.791,310.776
0.064,5.189,4.214,4.214,289.863,324.011,310.681
0.065,5.412,4.269,4.269,289.845,324.215,310.595
0.067,5.612,4.329,4.329,289.828,324.399,310.517
0.068,5.784,4.388,4.388,289.814,324.557,310.451
0.070,5.920,4.439,4.439,289.802,324.682,310.399
0.071,6.022,4.479,4.479,289.792,324.775,310.359
0.073,6.092,4.504,4.504,289.784,324.839,310.332
0.074,6.134,4.518,4.518,289.778,324.878,310.314
0.076,6.155,4.522,4.522,289.773,324.895,310.306
0.077,6.159,4.519,4.519,289.769,324.895,310.305
0.079,6.173,4.512,4.512,289.765,324.882,310.310
0.080,6.198,4.505,4.505,289.762,324.860,310.319
0.082,6.228,4.498,4.498,289.759,324.832,310.331
0.083,6.261,4.495,4.495,289.756,324.803,310.344
0.085,6.291,4.494,4.494,289.752,324.776,310.358
0.086,6.315,4.494,4.494,289.747,324.755,310.370
0.088,6.331,4.497,4.497,289.741,324.744,310.379
0.089,6.340,4.501,4.501,289.734,324.742,310.385
0.091,6.350,4.507,4.507,289.727,324.748,310.388
0.092,6.364,4.513,4.513,289.720,324.760,310.389
0.093,6.381,4.519,4.519,289.713,324.775,310.388
0.095,6.401,4.525,4.525,289.706,324.794,310.385
0.096,6.421,4.529,4.529,289.701,324.813,310.380
0.098,6.441,4.532,4.532,289.697,324.832,310.373
0.099,6.459,4.532,4.532,289.695,324.848,310.365
0.101,6.474,4.528,4.528,289.695,324.860,310.357
0.102,6.486,4.521,4.521,289.698,324.866,310.347
0.104,6.498,4.510,4.510,289.704,324.865,310.337
0.105,6.514,4.499,4.499,289.713,324.857,310.327
0.107,6.534,4.489,4.489,289.723,324.843,310.317
0.108,6.555,4.482,4.482,289.734,324.827,310.307
0.110,6.576,4.479,4.479,289.742,324.810,310.299
0.111,6.592,4.483,4.483,289.748,324.796,310.293
0.113,6.602,4.494,4.494,289.750,324.787,310.289
0.114,6.607,4.511,4.511,289.745,324.786,310.288
0.116,6.622,4.530,4.530,289.734,324.794,310.289
0.117,6.652,4.551,4.551,289.713,324.816,310.295
0.119,6.700,4.571,4.571,289.682,324.852,310.305
0.120,6.771,4.587,4.587,289.640,324.907,310.319
0.122,6.865,4.597,4.597,289.585,324.981,310.338
0.123,6.983,4.600,4.600,289.518,325.074,310.362
0.125,7.119,4.598,4.598,289.440,325.183,310.390
0.126,7.270,4.593,4.593,289.355,325.304,310.419
0.128,7.431,4.585,4.585,289.265,325.434,310.451
0.129,7.598,4.577,4.577,289.172,325.569,310.482
0.131,7.767,4.569,4.569,289.078,325.705,310.513
0.132,7.933,4.564,4.564,288.985,325.840,310.542
0.134,8.092,4.563,4.563,288.896,325.970,310.569
0.135,8.241,4.563,4.563,288.813,326.091,310.591
0.136,8.374,4.565,4.565,288.739,326.199,310.608
0.138,8.487,4.567,4.567,288.674,326.292,310.620
0.139,8.579,4.569,4.569,288.622,326.368,310.624
0.141,8.651,4.570,4.570,288.582,326.427,310.624
0.142,8.706,4.570,4.570,288.551,326.473,310.620
0.144,8.749,4.568,4.568,288.530,326.510,310.614
0.145,8.782,4.565,4.565,288.517,326.539,310.608
0.147,8.808,4.561,4.561,288.510,326.564,310.603
0.148,8.832,4.556,4.556,288.508,326.588,310.602
0.150,8.858,4.550,4.550,288.510,326.614,310.606
0.151,8.891,4.545,4.545,288.516,326.645,310.616
0.153,8.935,4.540,4.540,288.523,326.683,310.635
0.154,8.992,4.536,4.536,288.530,326.732,310.664
0.156,9.067,4.532,4.532,288.537,326.794,310.705
0.157,9.160,4.530,4.530,288.542,326.872,310.756
0.159,9.269,4.529,4.529,288.545,326.964,310.814
0.160,9.390,4.531,4.531,288.545,327.069,310.874
0.162,9.521,4.534,4.534,288.541,327.187,310.932
0.163,9.661,4.539,4.539,288.534,327.317,310.981
0.165,9.807,4.543,4.543,288.522,327.458,311.020
0.166,9.962,4.544,4.544,288.505,327.610,311.041
0.168,10.125,4.539,4.539,288.483,327.772,311.042
0.169,10.300,4.524,4.524,288.454,327.942,311.018
0.171,10.490,4.497,4.497,288.419,328.121,310.963
0.172,10.701,4.455,4.455,288.376,328.307,310.874
0.174,10.937,4.399,4.399,288.326,328.500,310.747
0.175,11.200,4.333,4.333,288.268,328.698,310.584
0.177,11.484,4.265,4.265,288.205,328.899,310.393
0.178,11.786,4.202,4.202,288.138,329.100,310.178
0.180,12.100,4.148,4.148,288.068,329.300,309.946
0.181,12.420,4.112,4.112,287.996,329.496,309.704
0.182,12.740,4.100,4.100,287.925,329.686,309.457
0.184,13.054,4.111,4.111,287.854,329.869,309.211
0.185,13.356,4.141,4.141,287.785,330.041,308.973
0.187,13.639,4.183,4.183,287.721,330.201,308.748
0.188,13.898,4.231,4.231,287.661,330.347,308.543
0.190,14.125,4.279,4.279,287.608,330.476,308.364
0.191,14.318,4.322,4.322,287.561,330.589,308.214
0.193,14.481,4.353,4.353,287.519,330.687,308.091
0.194,14.621,4.372,4.372,287.480,330.774,307.989
0.196,14.744,4.385,4.385,287.440,330.855,307.905
0.197,14.856,4.395,4.395,287.397,330.932,307.835
0.199,14.965,4.407,4.407,287.350,331.009,307.776
0.200,15.076,4.424,4.424,287.295,331.089,307.721
0.202,15.197,4.452,4.452,287.230,331.177,307.669
0.203,15.333,4.494,4.494,287.153,331.275,307.615
0.205,15.491,4.550,4.550,287.061,331.387,307.554
0.206,15.675,4.620,4.620,286.952,331.517,307.483
0.208,15.890,4.703,4.703,286.824,331.668,307.397
0.209,16.137,4.798,4.798,286.678,331.839,307.297
0.211,16.407,4.905,4.905,286.517,332.026,307.186
0.212,16.695,5.022,5.022,286.346,332.225,307.067
0.214,16.993,5.149,5.149,286.169,332.430,306.942
0.215,17.296,5.280,5.280,285.990,332.638,306.816
0.217,17.594,5.412,5.412,285.814,332.844,306.690
0.218,17.883,5.539,5.539,285.643,333.044,306.569
0.220,18.156,5.657,5.657,285.484,333.232,306.455
0.221,18.404,5.762,5.762,285.339,333.406,306.351
0.223,18.622,5.847,5.847,285.212,333.559,306.261
0.224,18.804,5.912,5.912,285.109,333.688,306.188
0.226,18.942,5.959,5.959,285.031,333.790,306.133
0.227,19.042,5.990,5.990,284.978,333.865,306.097
0.228,19.107,6.010,6.010,284.945,333.917,306.075
0.230,19.143,6.021,6.021,284.928,333.948,306.066
0.231,19.157,6.026,6.026,284.925,333.961,306.067
0.233,19.168,6.028,6.028,284.932,333.959,306.076
0.234,19.191,6.030,6.030,284.945,333.946,306.090
0.236,19.224,6.030,6.030,284.960,333.923,306.107
0.237,19.260,6.029,6.029,284.975,333.894,306.123
0.239,19.297,6.026,6.026,284.985,333.861,306.137
0.240,19.332,6.021,6.021,284.988,333.828,306.147
0.242,19.364,6.013,6.013,284.978,333.797,306.148
0.243,19.400,6.003,6.003,284.956,333.770,306.141
0.245,19.444,5.991,5.991,284.921,333.749,306.125
0.246,19.497,5.979,5.979,284.876,333.734,306.101
0.248,19.561,5.970,5.970,284.821,333.726,306.069
0.249,19.634,5.967,5.967,284.759,333.726,306.031
0.251,19.717,5.970,5.970,284.690,333.735,305.985
0.252,19.809,5.984,5.984,284.616,333.755,305.934
0.254,19.910,6.008,6.008,284.539,333.785,305.877
0.255,20.019,6.043,6.043,284.459,333.826,305.815
0.257,20.137,6.085,6.086,284.378,333.880,305.749
0.258,20.263,6.132,6.132,284.299,333.948,305.678
0.260,20.398,6.181,6.181,284.221,334.030,305.604
0.261,20.540,6.229,6.229,284.146,334.124,305.528
0.263,20.688,6.273,6.273,284.075,334.227,305.450
0.264,20.838,6.311,6.311,284.007,334.335,305.371
0.266,20.987,6.343,6.343,283.944,334.446,305.293
0.267,21.132,6.368,6.367,283.887,334.555,305.218
0.269,21.269,6.386,6.385,283.835,334.660,305.145
0.270,21.396,6.396,6.396,283.789,334.756,305.076
0.272,21.509,6.399,6.399,283.750,334.841,305.013
0.273,21.605,6.395,6.395,283.718,334.910,304.955
0.274,21.680,6.384,6.385,283.694,334.962,304.906
0.276,21.733,6.369,6.370,283.678,334.992,304.865
0.277,21.766,6.352,6.354,283.671,334.998,304.833
0.279,21.792,6.337,6.339,283.671,334.985,304.810
0.280,21.823,6.327,6.329,283.676,334.960,304.795
0.282,21.858,6.324,6.325,283.684,334.926,304.787
0.283,21.895,6.332,6.331,283.695,334.891,304.785
0.285,21.928,6.349,6.346,283.705,334.859,304.788
0.286,21.953,6.371,6.366,283.713,334.837,304.795
0.288,21.967,6.394,6.387,283.718,334.830,304.806
0.289,21.986,6.410,6.403,283.717,334.844,304.819
0.291,22.029,6.416,6.410,283.710,334.884,304.834
0.292,22.105,6.405,6.403,283.693,334.957,304.850
0.294,22.219,6.373,6.378,283.666,335.066,304.865
0.295,22.373,6.320,6.334,283.628,335.214,304.880
0.297,22.560,6.250,6.277,283.580,335.395,304.895
0.298,22.776,6.168,6.210,283.524,335.603,304.910
0.300,23.015,6.078,6.138,283.462,335.833,304.924
0.301,23.271,5.985,6.065,283.394,336.080,304.939
0.303,23.539,5.893,5.994,283.323,336.337,304.953
0.304,23.812,5.807,5.931,283.249,336.600,304.968
0.306,24.086,5.727,5.875,283.174,336.863,304.984
0.307,24.354,5.654,5.826,283.100,337.120,305.000
0.309,24.611,5.588,5.784,283.028,337.366,305.016
0.310,24.851,5.529,5.748,282.959,337.596,305.034
0.312,25.070,5.477,5.717,282.895,337.804,305.053
0.313,25.267,5.432,5.691,282.836,337.991,305.073
0.315,25.445,5.394,5.669,282.780,338.158,305.095
0.316,25.605,5.362,5.650,282.727,338.308,305.119
0.318,25.752,5.334,5.632,282.677,338.443,305.146
0.319,25.886,5.311,5.614,282.629,338.564,305.177
0.320,26.010,5.290,5.595,282.581,338.673,305.212
0.322,26.127,5.270,5.573,282.534,338.773,305.251
0.323,26.240,5.251,5.547,282.486,338.866,305.295
0.325,26.352,5.231,5.516,282.436,338.953,305.344
0.326,26.464,5.210,5.480,282.385,339.036,305.399
0.328,26.580,5.187,5.441,282.331,339.118,305.460
0.329,26.700,5.163,5.398,282.274,339.199,305.528
0.331,26.823,5.137,5.353,282.215,339.280,305.600
0.332,26.948,5.109,5.306,282.155,339.359,305.675
0.334,27.073,5.078,5.259,282.093,339.436,305.752
0.335,27.195,5.045,5.211,282.032,339.510,305.828
0.337,27.314,5.012,5.164,281.971,339.581,305.902
0.338,27.427,4.979,5.119,281.912,339.647,305.972
0.340,27.533,4.947,5.077,281.856,339.708,306.036
0.341,27.629,4.919,5.039,281.802,339.764,306.093
0.343,27.714,4.896,5.007,281.753,339.814,306.142
0.344,27.787,4.877,4.981,281.708,339.857,306.179
0.346,27.846,4.865,4.961,281.669,339.893,306.205
0.347,27.892,4.857,4.948,281.635,339.921,306.218
0.349,27.930,4.853,4.939,281.605,339.944,306.222
0.350,27.963,4.851,4.935,281.578,339.964,306.218
0.352,27.994,4.850,4.935,281.554,339.981,306.207
0.353,28.026,4.848,4.939,281.531,339.997,306.192
0.355,28.059,4.845,4.944,281.508,340.013,306.175
0.356,28.093,4.841,4.951,281.485,340.032,306.158
0.358,28.130,4.834,4.956,281.460,340.054,306.143
0.359,28.171,4.824,4.959,281.432,340.082,306.131
0.361,28.219,4.812,4.958,281.400,340.116,306.124
0.362,28.275,4.796,4.949,281.364,340.159,306.126
0.364,28.342,4.777,4.933,281.322,340.211,306.136
0.365,28.421,4.754,4.906,281.275,340.272,306.154
0.366,28.512,4.728,4.872,281.223,340.342,306.179
0.368,28.613,4.698,4.830,281.168,340.421,306.209
0.369,28.723,4.666,4.785,281.110,340.507,306.243
0.371,28.841,4.630,4.738,281.048,340.602,306.280
0.372,28.966,4.592,4.690,280.985,340.703,306.318
0.374,29.098,4.551,4.645,280.921,340.811,306.356
0.375,29.234,4.508,4.603,280.856,340.925,306.392
0.377,29.374,4.464,4.565,280.791,341.046,306.425
0.378,29.518,4.418,4.529,280.727,341.171,306.454
0.380,29.665,4.371,4.494,280.665,341.302,306.477
0.381,29.815,4.323,4.461,280.603,341.438,306.494
0.383,29.970,4.274,4.429,280.541,341.579,306.505
0.384,30.131,4.226,4.395,280.478,341.728,306.511
0.386,30.301,4.178,4.362,280.412,341.884,306.512
0.387,30.480,4.133,4.328,280.341,342.049,306.511
0.389,30.671,4.091,4.296,280.265,342.223,306.507
0.390,30.874,4.056,4.266,280.181,342.408,306.501
0.392,31.091,4.027,4.239,280.089,342.605,306.495
0.393,31.324,4.008,4.215,279.987,342.813,306.488
0.395,31.573,3.998,4.197,279.873,343.035,306.482
0.396,31.841,4.001,4.185,279.746,343.272,306.477
0.398,32.129,4.016,4.182,279.606,343.523,306.474
0.399,32.434,4.044,4.190,279.453,343.787,306.473
0.401,32.752,4.086,4.211,279.290,344.060,306.473
0.402,33.080,4.142,4.247,279.121,344.340,306.473
0.404,33.411,4.213,4.302,278.948,344.624,306.472
0.405,33.743,4.299,4.377,278.775,344.907,306.470
0.407,34.071,4.398,4.470,278.604,345.187,306.464
0.408,34.391,4.504,4.578,278.439,345.460,306.455
0.409,34.697,4.614,4.697,278.282,345.723,306.442
0.411,34.987,4.722,4.825,278.136,345.973,306.423
0.412,35.256,4.822,4.958,278.005,346.206,306.398
0.414,35.500,4.912,5.092,277.892,346.420,306.366
0.415,35.717,4.985,5.224,277.797,346.611,306.326
0.417,35.909,5.044,5.349,277.721,346.782,306.281
0.418,36.079,5.092,5.465,277.661,346.932,306.230
0.420,36.228,5.132,5.566,277.616,347.063,306.175
0.421,36.359,5.168,5.650,277.583,347.177,306.118
0.423,36.475,5.201,5.711,277.561,347.274,306.061
0.424,36.575,5.236,5.746,277.548,347.356,306.004
0.426,36.663,5.275,5.754,277.542,347.425,305.949
0.427,36.739,5.315,5.739,277.542,347.480,305.898
0.429,36.803,5.356,5.707,277.546,347.524,305.851
0.430,36.857,5.395,5.666,277.551,347.558,305.810
0.432,36.899,5.430,5.622,277.557,347.583,305.777
0.433,36.930,5.459,5.581,277.561,347.601,305.752
0.435,36.951,5.479,5.549,277.565,347.612,305.733
0.436,36.965,5.490,5.531,277.566,347.618,305.721
0.438,36.973,5.493,5.525,277.566,347.620,305.713
0.439,36.977,5.490,5.527,277.564,347.620,305.710
0.441,36.982,5.483,5.536,277.559,347.618,305.710
0.442,36.990,5.473,5.550,277.552,347.617,305.711
0.444,37.001,5.462,5.565,277.541,347.616,305.715
0.445,37.015,5.452,5.580,277.528,347.619,305.718
0.447,37.034,5.443,5.593,277.510,347.626,305.721
0.448,37.058,5.436,5.605,277.489,347.637,305.723
0.450,37.089,5.431,5.615,277.464,347.656,305.722
0.451,37.129,5.427,5.623,277.434,347.681,305.718
0.453,37.177,5.427,5.630,277.400,347.715,305.713
0.454,37.235,5.428,5.637,277.360,347.757,305.706
0.455,37.304,5.432,5.643,277.315,347.808,305.698
0.457,37.384,5.439,5.649,277.264,347.868,305.688
0.458,37.476,5.450,5.655,277.207,347.940,305.678
0.460,37.580,5.464,5.664,277.144,348.022,305.667
0.461,37.698,5.484,5.676,277.073,348.115,305.656
0.463,37.829,5.508,5.692,276.996,348.221,305.645
0.464,37.976,5.539,5.714,276.911,348.340,305.634
0.466,38.138,5.576,5.741,276.818,348.472,305.624
0.467,38.314,5.619,5.773,276.718,348.617,305.615
0.469,38.501,5.667,5.810,276.612,348.771,305.607
0.470,38.694,5.718,5.850,276.502,348.930,305.601
0.472,38.889,5.772,5.892,276.391,349.090,305.598
0.473,39.082,5.828,5.935,276.279,349.248,305.597
0.475,39.269,5.883,5.977,276.170,349.398,305.599
0.476,39.444,5.938,6.018,276.064,349.539,305.604
0.478,39.605,5.989,6.058,275.964,349.664,305.614
0.479,39.747,6.035,6.096,275.871,349.771,305.627
0.481,39.867,6.071,6.132,275.789,349.856,305.646
0.482,39.962,6.097,6.167,275.717,349.914,305.669
0.484,40.033,6.109,6.200,275.659,349.943,305.698
0.485,40.088,6.105,6.232,275.615,349.944,305.730
0.487,40.138,6.085,6.262,275.583,349.925,305.764
0.488,40.188,6.053,6.288,275.562,349.892,305.795
0.490,40.237,6.014,6.308,275.552,349.852,305.821
0.491,40.281,5.974,6.321,275.552,349.812,305.839
0.493,40.316,5.938,6.324,275.560,349.779,305.846
0.494,40.342,5.912,6.316,275.576,349.759,305.838
0.496,40.375,5.900,6.295,275.598,349.761,305.814
0.497,40.434,5.904,6.262,275.626,349.789,305.770
0.499,40.532,5.920,6.219,275.659,349.852,305.703
0.500,40.677,5.943,6.172,275.695,349.957,305.610
0.501,40.873,5.969,6.122,275.734,350.107,305.489
0.503,41.115,5.994,6.074,275.775,350.297,305.345
0.504,41.394,6.012,6.032,275.817,350.518,305.182
0.506,41.699,6.021,5.998,275.859,350.764,305.005
0.507,42.021,6.018,5.973,275.900,351.024,304.820
0.509,42.351,6.005,5.953,275.940,351.292,304.632
0.510,42.679,5.981,5.935,275.977,351.559,304.445
0.512,42.995,5.948,5.915,276.011,351.817,304.266
0.513,43.289,5.907,5.890,276.041,352.058,304.099
0.515,43.553,5.859,5.856,276.065,352.273,303.949
0.516,43.775,5.803,5.811,276.084,352.455,303.821
0.518,43.948,5.745,5.757,276.097,352.595,303.721
0.519,44.068,5.686,5.700,276.102,352.691,303.650
0.521,44.142,5.632,5.644,276.103,352.750,303.605
0.522,44.179,5.587,5.595,276.100,352.778,303.582
0.524,44.187,5.554,5.557,276.094,352.783,303.578
0.525,44.204,5.537,5.537,276.088,352.770,303.588
0.527,44.237,5.539,5.537,276.083,352.746,303.610
0.528,44.277,5.557,5.555,276.080,352.719,303.639
0.530,44.318,5.586,5.584,276.081,352.696,303.673
0.531,44.355,5.621,5.620,276.087,352.682,303.707
0.533,44.388,5.658,5.658,276.100,352.685,303.737
0.534,44.430,5.693,5.693,276.121,352.711,303.761
0.536,44.495,5.719,5.719,276.151,352.768,303.775
0.537,44.589,5.736,5.734,276.190,352.853,303.779
0.539,44.710,5.742,5.739,276.237,352.965,303.773
0.540,44.855,5.741,5.736,276.290,353.099,303.759
0.542,45.021,5.734,5.728,276.347,353.253,303.737
0.543,45.203,5.723,5.717,276.407,353.423,303.709
0.545,45.399,5.709,5.706,276.468,353.605,303.675
0.546,45.604,5.695,5.697,276.529,353.797,303.637
0.547,45.815,5.681,5.692,276.589,353.996,303.596
0.549,46.028,5.668,5.689,276.646,354.197,303.553
0.550,46.240,5.658,5.689,276.697,354.398,303.508
0.552,46.448,5.650,5.691,276.743,354.594,303.462
0.553,46.647,5.645,5.694,276.782,354.784,303.418
0.555,46.837,5.645,5.698,276.814,354.967,303.374
0.556,47.016,5.650,5.704,276.840,355.140,303.332
0.558,47.185,5.660,5.709,276.860,355.302,303.292
0.559,47.341,5.673,5.715,276.876,355.453,303.255
0.561,47.484,5.687,5.721,276.888,355.591,303.221
0.562,47.613,5.703,5.728,276.897,355.716,303.191
0.564,47.725,5.717,5.735,276.904,355.825,303.164
0.565,47.821,5.729,5.742,276.908,355.918,303.143
0.567,47.898,5.738,5.750,276.911,355.994,303.126
0.568,47.956,5.744,5.758,276.914,356.051,303.115
0.570,47.994,5.747,5.766,276.917,356.088,303.111
0.571,48.014,5.749,5.773,276.920,356.107,303.112
0.573,48.021,5.750,5.779,276.923,356.112,303.116
0.574,48.031,5.750,5.784,276.926,356.106,303.124
0.576,48.047,5.752,5.788,276.929,356.093,303.132
0.577,48.065,5.755,5.790,276.930,356.077,303.140
0.579,48.081,5.759,5.791,276.930,356.062,303.146
0.580,48.092,5.763,5.789,276.929,356.051,303.149
0.582,48.096,5.765,5.784,276.926,356.049,303.146
0.583,48.111,5.765,5.777,276.921,356.059,303.137
0.585,48.143,5.761,5.767,276.914,356.086,303.120
0.586,48.198,5.753,5.754,276.904,356.132,303.093
0.588,48.278,5.740,5.738,276.891,356.202,303.055
0.589,48.380,5.723,5.720,276.876,356.292,303.008
0.591,48.501,5.705,5.701,276.859,356.398,302.954
0.592,48.634,5.686,5.683,276.840,356.516,302.895
0.593,48.777,5.669,5.667,276.820,356.643,302.834
0.595,48.923,5.654,5.654,276.799,356.774,302.772
0.596,49.068,5.645,5.645,276.779,356.904,302.712
0.598,49.207,5.641,5.641,276.759,357.031,302.656
0.599,49.337,5.641,5.642,276.740,357.149,302.607
0.601,49.452,5.646,5.646,276.722,357.255,302.566
0.602,49.547,5.653,5.653,276.707,357.344,302.535
0.604,49.619,5.661,5.662,276.694,357.412,302.518
0.605,49.667,5.671,5.672,276.684,357.459,302.514
