"T","Distance","Radius","FreeRadius","X","Y","Z"
0.000,0.000,2.239,2.239,210.747,185.397,176.292
0.001,0.023,2.255,2.255,210.726,185.388,176.299
0.002,0.047,2.272,2.272,210.707,185.378,176.307
0.004,0.070,2.289,2.289,210.689,185.367,176.315
0.005,0.093,2.307,2.307,210.673,185.353,176.325
0.006,0.117,2.326,2.326,210.660,185.337,176.337
0.007,0.143,2.347,2.347,210.650,185.317,176.352
0.009,0.174,2.369,2.369,210.645,185.293,176.369
0.010,0.210,2.394,2.394,210.645,185.264,176.391
0.011,0.253,2.421,2.421,210.651,185.229,176.416
0.012,0.305,2.452,2.452,210.663,185.188,176.446
0.014,0.368,2.487,2.487,210.682,185.140,176.481
0.015,0.442,2.526,2.526,210.710,185.084,176.521
0.016,0.530,2.573,2.573,210.746,185.019,176.568
0.017,0.632,2.626,2.626,210.791,184.945,176.621
0.019,0.748,2.686,2.686,210.847,184.862,176.681
0.020,0.878,2.756,2.756,210.911,184.770,176.747
0.021,1.020,2.835,2.835,210.982,184.671,176.819
0.022,1.170,2.923,2.923,211.060,184.566,176.894
0.024,1.327,3.017,3.017,211.141,184.457,176.972
0.025,1.489,3.116,3.116,211.226,184.345,177.052
0.026,1.652,3.217,3.217,211.312,184.232,177.132
0.027,1.815,3.319,3.319,211.398,184.119,177.213
0.029,1.976,3.421,3.421,211.482,184.008,177.291
0.030,2.131,3.519,3.519,211.564,183.899,177.368
0.031,2.280,3.613,3.613,211.641,183.795,177.440
0.032,2.419,3.701,3.701,211.712,183.697,177.508
0.034,2.546,3.784,3.784,211.776,183.606,177.570
0.035,2.659,3.860,3.860,211.831,183.525,177.625
0.036,2.756,3.929,3.929,211.876,183.453,177.673
0.037,2.838,3.992,3.992,211.912,183.391,177.712
0.039,2.906,4.047,4.047,211.939,183.337,177.745
0.040,2.962,4.095,4.095,211.959,183.292,177.772
0.041,3.008,4.135,4.135,211.973,183.254,177.793
0.042,3.044,4.167,4.167,211.983,183.222,177.808
0.044,3.073,4.192,4.192,211.989,183.197,177.820
0.045,3.096,4.212,4.212,211.992,183.175,177.827
0.046,3.114,4.227,4.227,211.995,183.158,177.830
0.047,3.128,4.238,4.238,211.997,183.144,177.831
0.049,3.140,4.247,4.247,212.000,183.133,177.830
0.050,3.152,4.254,4.254,212.005,183.123,177.827
0.051,3.165,4.260,4.260,212.014,183.113,177.823
0.052,3.182,4.265,4.265,212.027,183.104,177.819
0.054,3.204,4.271,4.271,212.046,183.094,177.814
0.055,3.230,4.276,4.276,212.070,183.083,177.810
0.056,3.262,4.281,4.281,212.099,183.071,177.807
0.057,3.296,4.286,4.286,212.131,183.058,177.803
0.059,3.333,4.291,4.291,212.166,183.046,177.800
0.060,3.372,4.296,4.296,212.203,183.033,177.797
0.061,3.413,4.302,4.302,212.241,183.020,177.795
0.062,3.453,4.308,4.308,212.279,183.007,177.793
0.064,3.494,4.313,4.313,212.318,182.995,177.791
0.065,3.533,4.318,4.318,212.355,182.983,177.790
0.066,3.569,4.323,4.323,212.390,182.972,177.789
0.067,3.603,4.327,4.327,212.422,182.962,177.788
0.069,3.633,4.330,4.330,212.451,182.952,177.788
0.070,3.659,4.331,4.331,212.475,182.944,177.788
0.071,3.680,4.330,4.330,212.494,182.938,177.789
0.072,3.695,4.328,4.328,212.509,182.932,177.790
0.074,3.706,4.324,4.324,212.519,182.928,177.792
0.075,3.714,4.320,4.320,212.527,182.926,177.793
0.076,3.719,4.315,4.315,212.531,182.924,177.794
0.077,3.722,4.310,4.310,212.534,182.923,177.794
0.079,3.724,4.305,4.305,212.536,182.924,177.794
0.080,3.726,4.302,4.302,212.537,182.925,177.793
0.081,3.730,4.299,4.299,212.539,182.927,177.791
0.082,3.735,4.298,4.298,212.542,182.930,177.788
0.084,3.742,4.298,4.298,212.547,182.933,177.784
0.085,3.752,4.298,4.298,212.554,182.937,177.778
0.086,3.766,4.298,4.298,212.565,182.942,177.770
0.087,3.785,4.298,4.298,212.580,182.947,177.760
0.089,3.808,4.297,4.297,212.599,182.952,177.748
0.090,3.836,4.295,4.295,212.623,182.958,177.735
0.091,3.868,4.290,4.290,212.651,182.963,177.720
0.092,3.904,4.284,4.284,212.682,182.969,177.704
0.094,3.942,4.276,4.276,212.715,182.975,177.687
0.095,3.982,4.266,4.266,212.751,182.981,177.670
0.096,4.023,4.256,4.256,212.789,182.986,177.654
0.097,4.064,4.245,4.245,212.827,182.992,177.639
0.099,4.105,4.234,4.234,212.865,182.997,177.625
0.100,4.145,4.224,4.224,212.903,183.002,177.613
0.101,4.184,4.214,4.214,212.940,183.007,177.603
0.102,4.220,4.205,4.205,212.975,183.011,177.596
0.104,4.254,4.197,4.197,213.008,183.014,177.592
0.105,4.284,4.191,4.191,213.039,183.017,177.591
0.106,4.311,4.185,4.185,213.065,183.019,177.594
0.107,4.335,4.181,4.181,213.089,183.020,177.602
0.109,4.358,4.178,4.178,213.108,183.021,177.611
0.110,4.378,4.175,4.175,213.125,183.022,177.624
0.111,4.396,4.175,4.175,213.137,183.022,177.637
0.112,4.413,4.175,4.175,213.147,183.023,177.651
0.114,4.428,4.176,4.176,213.153,183.023,177.665
0.115,4.441,4.177,4.177,213.156,183.023,177.678
0.116,4.452,4.179,4.179,213.155,183.024,177.689
0.117,4.462,4.180,4.180,213.152,183.025,177.697
0.119,4.471,4.180,4.180,213.145,183.027,177.703
0.120,4.481,4.179,4.179,213.135,183.029,177.704
0.121,4.494,4.177,4.177,213.122,183.033,177.701
0.122,4.513,4.173,4.173,213.107,183.037,177.691
0.124,4.537,4.168,4.168,213.088,183.042,177.676
0.125,4.567,4.161,4.161,213.069,183.049,177.655
0.126,4.599,4.153,4.153,213.052,183.055,177.628
0.127,4.633,4.145,4.145,213.039,183.062,177.598
0.129,4.668,4.137,4.137,213.034,183.068,177.563
0.130,4.706,4.129,4.129,213.040,183.074,177.527
0.131,4.749,4.121,4.121,213.060,183.078,177.488
0.132,4.803,4.114,4.114,213.097,183.081,177.449
0.134,4.871,4.106,4.106,213.152,183.082,177.410
0.135,4.958,4.097,4.097,213.231,183.080,177.372
0.136,5.068,4.086,4.086,213.335,183.075,177.336
0.137,5.205,4.071,4.071,213.467,183.067,177.302
0.139,5.372,4.050,4.050,213.631,183.055,177.273
0.140,5.572,4.023,4.023,213.829,183.039,177.247
0.141,5.808,3.989,3.989,214.063,183.019,177.227
0.142,6.080,3.946,3.946,214.334,182.994,177.214
0.144,6.382,3.897,3.897,214.634,182.965,177.206
0.145,6.710,3.844,3.844,214.961,182.933,177.207
0.146,7.059,3.791,3.791,215.308,182.897,177.215
0.147,7.424,3.741,3.741,215.670,182.860,177.231
0.149,7.800,3.697,3.697,216.043,182.820,177.257
0.150,8.183,3.664,3.664,216.422,182.780,177.292
0.151,8.567,3.644,3.644,216.801,182.738,177.338
0.152,8.948,3.640,3.640,217.176,182.697,177.395
0.154,9.322,3.653,3.653,217.542,182.655,177.463
0.155,9.685,3.681,3.681,217.893,182.614,177.543
0.156,10.032,3.724,3.724,218.225,182.575,177.635
0.157,10.359,3.779,3.779,218.532,182.538,177.741
0.159,10.664,3.845,3.845,218.811,182.502,177.861
0.160,10.947,3.921,3.921,219.059,182.470,177.993
0.161,11.212,4.006,4.006,219.279,182.439,178.137
0.162,11.461,4.098,4.098,219.473,182.409,178.290
0.164,11.696,4.195,4.195,219.644,182.380,178.449
0.165,11.920,4.294,4.294,219.794,182.351,178.613
0.166,12.135,4.394,4.394,219.925,182.322,178.780
0.167,12.340,4.491,4.491,220.040,182.292,178.948
0.169,12.538,4.583,4.583,220.142,182.260,179.114
0.170,12.727,4.667,4.667,220.231,182.227,179.277
0.171,12.907,4.742,4.742,220.312,182.191,179.434
0.172,13.079,4.803,4.803,220.386,182.152,179.584
0.174,13.241,4.852,4.852,220.455,182.109,179.725
0.175,13.394,4.891,4.891,220.523,182.062,179.853
0.176,13.537,4.922,4.922,220.591,182.010,179.969
0.177,13.672,4.948,4.948,220.660,181.954,180.070
0.179,13.800,4.971,4.971,220.730,181.894,180.158
0.180,13.922,4.995,4.995,220.801,181.830,180.234
0.181,14.039,5.022,5.022,220.871,181.763,180.300
0.182,14.153,5.054,5.054,220.942,181.693,180.356
0.184,14.264,5.092,5.092,221.011,181.622,180.405
0.185,14.372,5.136,5.136,221.080,181.550,180.446
0.186,14.477,5.183,5.183,221.147,181.477,180.482
0.187,14.580,5.232,5.232,221.212,181.403,180.514
0.189,14.680,5.282,5.282,221.274,181.330,180.542
0.190,14.777,5.330,5.330,221.333,181.259,180.569
0.191,14.871,5.376,5.376,221.389,181.188,180.595
0.192,14.960,5.418,5.418,221.442,181.120,180.621
0.194,15.046,5.455,5.455,221.490,181.055,180.649
0.195,15.128,5.488,5.488,221.534,180.993,180.679
0.196,15.205,5.516,5.516,221.574,180.934,180.710
0.197,15.278,5.541,5.541,221.610,180.880,180.742
0.199,15.346,5.563,5.563,221.642,180.829,180.774
0.200,15.409,5.582,5.582,221.672,180.783,180.804
0.201,15.465,5.599,5.599,221.699,180.742,180.833
0.202,15.516,5.614,5.614,221.723,180.706,180.859
0.203,15.560,5.628,5.628,221.746,180.675,180.881
0.205,15.597,5.639,5.639,221.766,180.651,180.899
0.206,15.627,5.648,5.648,221.785,180.632,180.912
0.207,15.649,5.653,5.653,221.803,180.620,180.920
0.208,15.667,5.655,5.655,221.819,180.614,180.920
0.210,15.685,5.651,5.651,221.836,180.616,180.913
0.211,15.708,5.643,5.643,221.852,180.625,180.898
0.212,15.740,5.628,5.628,221.867,180.641,180.875
0.213,15.779,5.607,5.607,221.883,180.662,180.847
0.215,15.822,5.582,5.582,221.897,180.686,180.815
0.216,15.866,5.555,5.555,221.911,180.713,180.782
0.217,15.909,5.528,5.528,221.923,180.739,180.751
0.218,15.948,5.502,5.502,221.933,180.764,180.723
0.220,15.980,5.480,5.480,221.942,180.786,180.701
0.221,16.003,5.464,5.464,221.948,180.803,180.687
0.222,16.014,5.456,5.456,221.952,180.813,180.683
0.223,16.023,5.457,5.457,221.953,180.815,180.692
0.225,16.049,5.467,5.467,221.951,180.806,180.717
0.226,16.096,5.486,5.486,221.946,180.786,180.758
0.227,16.166,5.513,5.512,221.937,180.752,180.819
0.228,16.264,5.546,5.545,221.924,180.702,180.902
0.230,16.388,5.586,5.585,221.908,180.638,181.008
0.231,16.536,5.631,5.630,221.892,180.558,181.131
0.232,16.703,5.680,5.680,221.881,180.467,181.270
0.233,16.885,5.733,5.734,221.876,180.364,181.421
0.235,17.079,5.787,5.788,221.882,180.252,181.579
0.236,17.282,5.838,5.840,221.902,180.133,181.742
0.237,17.491,5.883,5.886,221.939,180.007,181.905
0.238,17.705,5.919,5.922,221.997,179.877,182.065
0.240,17.924,5.941,5.944,222.079,179.745,182.219
0.241,18.149,5.948,5.950,222.188,179.611,182.363
0.242,18.382,5.935,5.936,222.329,179.479,182.493
0.243,18.627,5.900,5.898,222.503,179.348,182.605
0.245,18.890,5.846,5.841,222.715,179.222,182.697
0.246,19.179,5.777,5.768,222.969,179.101,182.764
0.247,19.498,5.697,5.686,223.263,178.987,182.804
0.248,19.845,5.613,5.601,223.593,178.879,182.821
0.250,20.218,5.528,5.516,223.953,178.778,182.816
0.251,20.613,5.447,5.438,224.335,178.683,182.793
0.252,21.023,5.375,5.373,224.733,178.594,182.753
0.253,21.443,5.317,5.324,225.141,178.510,182.699
0.255,21.867,5.272,5.292,225.553,178.432,182.634
0.256,22.289,5.237,5.272,225.962,178.359,182.561
0.257,22.702,5.211,5.260,226.362,178.290,182.481
0.258,23.100,5.190,5.254,226.746,178.227,182.398
0.260,23.477,5.172,5.248,227.108,178.168,182.315
0.261,23.825,5.155,5.240,227.442,178.113,182.233
0.262,24.138,5.136,5.226,227.741,178.062,182.155
0.263,24.410,5.112,5.201,227.999,178.015,182.084
0.265,24.637,5.084,5.167,228.213,177.972,182.021
0.266,24.821,5.054,5.127,228.384,177.931,181.967
0.267,24.968,5.024,5.084,228.518,177.894,181.921
0.268,25.080,4.996,5.042,228.618,177.860,181.881
0.270,25.163,4.973,5.003,228.687,177.829,181.849
0.271,25.220,4.955,4.972,228.730,177.800,181.823
0.272,25.259,4.946,4.950,228.749,177.773,181.803
0.273,25.287,4.947,4.943,228.750,177.749,181.789
0.275,25.316,4.958,4.949,228.735,177.727,181.780
0.276,25.350,4.977,4.965,228.708,177.706,181.775
0.277,25.389,5.001,4.989,228.673,177.687,181.774
0.278,25.432,5.027,5.017,228.634,177.670,181.776
0.280,25.475,5.053,5.046,228.595,177.653,181.782
0.281,25.516,5.077,5.073,228.558,177.638,181.790
0.282,25.551,5.096,5.095,228.528,177.624,181.800
0.283,25.581,5.108,5.109,228.504,177.610,181.812
0.285,25.605,5.112,5.114,228.487,177.597,181.825
0.286,25.626,5.109,5.112,228.476,177.585,181.837
0.287,25.643,5.101,5.104,228.473,177.574,181.849
0.288,25.658,5.090,5.092,228.476,177.563,181.860
0.290,25.675,5.077,5.077,228.486,177.552,181.868
0.291,25.696,5.062,5.063,228.503,177.542,181.874
0.292,25.723,5.049,5.049,228.528,177.532,181.877
0.293,25.756,5.038,5.038,228.559,177.522,181.875
0.295,25.797,5.030,5.031,228.598,177.512,181.869
0.296,25.846,5.025,5.027,228.645,177.503,181.858
0.297,25.903,5.021,5.025,228.699,177.494,181.840
0.298,25.971,5.019,5.023,228.761,177.484,181.816
0.300,26.047,5.018,5.022,228.830,177.475,181.785
0.301,26.133,5.017,5.021,228.906,177.465,181.747
0.302,26.226,5.015,5.017,228.988,177.454,181.704
0.303,26.324,5.013,5.012,229.074,177.443,181.657
0.305,26.428,5.009,5.003,229.164,177.432,181.606
0.306,26.535,5.003,4.992,229.256,177.419,181.553
0.307,26.643,4.993,4.979,229.349,177.406,181.499
0.308,26.753,4.979,4.964,229.442,177.391,181.444
0.310,26.862,4.960,4.948,229.535,177.375,181.389
0.311,26.968,4.935,4.930,229.625,177.357,181.336
0.312,27.071,4.903,4.912,229.713,177.338,181.286
0.313,27.170,4.863,4.893,229.797,177.317,181.238
0.315,27.262,4.815,4.874,229.876,177.293,181.195
0.316,27.348,4.762,4.855,229.949,177.268,181.158
0.317,27.426,4.707,4.838,230.014,177.241,181.126
0.318,27.495,4.653,4.823,230.072,177.212,181.101
0.320,27.556,4.602,4.809,230.122,177.184,181.080
0.321,27.607,4.558,4.799,230.163,177.158,181.065
0.322,27.649,4.523,4.792,230.195,177.133,181.055
0.323,27.680,4.502,4.788,230.218,177.113,181.049
0.325,27.700,4.494,4.790,230.230,177.097,181.048
0.326,27.710,4.500,4.794,230.232,177.088,181.050
0.327,27.720,4.517,4.802,230.223,177.086,181.055
0.328,27.744,4.544,4.813,230.202,177.093,181.063
0.330,27.782,4.578,4.825,230.170,177.109,181.074
0.331,27.836,4.618,4.839,230.125,177.136,181.088
0.332,27.908,4.662,4.853,230.066,177.176,181.103
0.333,27.999,4.707,4.867,229.995,177.228,181.120
0.335,28.108,4.753,4.881,229.910,177.295,181.138
0.336,28.229,4.796,4.892,229.817,177.370,181.157
0.337,28.355,4.833,4.900,229.721,177.450,181.174
0.338,28.479,4.863,4.904,229.627,177.530,181.191
0.340,28.593,4.882,4.901,229.542,177.603,181.204
0.341,28.689,4.887,4.891,229.470,177.666,181.215
0.342,28.760,4.876,4.873,229.417,177.712,181.221
0.343,28.798,4.846,4.845,229.388,177.738,181.222
0.345,28.803,4.795,4.806,229.389,177.737,181.217
0.346,28.854,4.726,4.757,229.426,177.706,181.204
0.347,28.959,4.643,4.699,229.504,177.638,181.184
0.348,29.127,4.550,4.633,229.629,177.528,181.155
0.350,29.366,4.450,4.561,229.805,177.372,181.116
0.351,29.682,4.348,4.483,230.039,177.165,181.066
0.352,30.081,4.247,4.400,230.334,176.903,181.005
0.353,30.554,4.152,4.315,230.683,176.592,180.934
0.355,31.090,4.067,4.228,231.078,176.239,180.854
0.356,31.674,3.993,4.144,231.509,175.854,180.767
0.357,32.297,3.933,4.070,231.968,175.444,180.675
0.358,32.944,3.888,4.011,232.445,175.018,180.578
0.360,33.603,3.862,3.974,232.932,174.583,180.480
0.361,34.264,3.854,3.965,233.418,174.148,180.381
0.362,34.912,3.868,3.990,233.896,173.721,180.283
0.363,35.536,3.906,4.055,234.355,173.309,180.188
0.365,36.124,3.968,4.166,234.788,172.922,180.097
0.366,36.662,4.052,4.315,235.184,172.567,180.012
0.367,37.140,4.151,4.492,235.535,172.253,179.935
0.368,37.544,4.261,4.684,235.832,171.987,179.866
0.370,37.865,4.375,4.880,236.067,171.776,179.808
0.371,38.107,4.489,5.067,236.243,171.618,179.761
0.372,38.276,4.595,5.233,236.366,171.508,179.723
0.373,38.381,4.689,5.367,236.442,171.440,179.696
0.375,38.430,4.764,5.458,236.476,171.410,179.679
0.376,38.438,4.821,5.504,236.475,171.412,179.672
0.377,38.479,4.861,5.513,236.445,171.441,179.674
0.378,38.554,4.887,5.493,236.391,171.491,179.685
0.380,38.654,4.900,5.450,236.320,171.558,179.705
0.381,38.771,4.902,5.392,236.238,171.637,179.733
0.382,38.899,4.897,5.326,236.150,171.721,179.770
0.383,39.029,4.885,5.259,236.062,171.807,179.815
0.385,39.156,4.869,5.198,235.980,171.889,179.867
0.386,39.273,4.851,5.148,235.911,171.961,179.928
0.387,39.376,4.832,5.109,235.859,172.019,179.995
0.388,39.468,4.814,5.082,235.825,172.062,180.069
0.390,39.555,4.797,5.068,235.808,172.093,180.148
0.391,39.639,4.784,5.068,235.805,172.113,180.230
0.392,39.726,4.775,5.083,235.817,172.122,180.315
0.393,39.815,4.773,5.113,235.840,172.123,180.402
0.395,39.908,4.777,5.160,235.874,172.116,180.488
0.396,40.004,4.789,5.221,235.917,172.104,180.573
0.397,40.103,4.806,5.292,235.969,172.086,180.655
0.398,40.202,4.828,5.368,236.027,172.066,180.733
0.400,40.301,4.853,5.444,236.089,172.044,180.807
0.401,40.398,4.879,5.516,236.156,172.021,180.874
0.402,40.492,4.904,5.579,236.224,172.000,180.934
0.403,40.579,4.928,5.627,236.293,171.980,180.984
0.404,40.661,4.948,5.656,236.362,171.965,181.025
0.406,40.737,4.965,5.665,236.430,171.953,181.056
0.407,40.809,4.979,5.657,236.498,171.943,181.080
0.408,40.879,4.991,5.636,236.565,171.935,181.096
0.409,40.948,5.002,5.604,236.633,171.928,181.107
0.411,41.018,5.013,5.566,236.702,171.922,181.114
0.412,41.089,5.026,5.526,236.772,171.915,181.118
0.413,41.161,5.041,5.487,236.844,171.906,181.120
0.414,41.235,5.060,5.452,236.918,171.895,181.121
0.416,41.312,5.082,5.425,236.994,171.882,181.123
0.417,41.393,5.108,5.405,237.073,171.864,181.127
0.418,41.478,5.136,5.392,237.154,171.843,181.135
0.419,41.569,5.165,5.386,237.240,171.815,181.147
0.421,41.666,5.195,5.388,237.329,171.782,181.165
0.422,41.770,5.225,5.397,237.422,171.742,181.190
0.423,41.883,5.254,5.414,237.520,171.695,181.222
0.424,42.003,5.281,5.437,237.621,171.644,181.260
0.426,42.128,5.305,5.468,237.725,171.588,181.305
0.427,42.259,5.328,5.503,237.831,171.530,181.354
0.428,42.395,5.351,5.542,237.940,171.471,181.409
0.429,42.533,5.373,5.582,238.050,171.411,181.467
0.431,42.673,5.396,5.621,238.160,171.351,181.529
0.432,42.814,5.421,5.658,238.272,171.294,181.595
0.433,42.956,5.449,5.690,238.383,171.240,181.662
0.434,43.096,5.480,5.716,238.495,171.191,181.732
0.436,43.234,5.515,5.735,238.605,171.147,181.803
0.437,43.369,5.553,5.747,238.713,171.109,181.875
0.438,43.501,5.592,5.754,238.820,171.080,181.947
0.439,43.630,5.632,5.759,238.924,171.060,182.019
0.441,43.754,5.672,5.762,239.026,171.048,182.090
0.442,43.876,5.710,5.765,239.124,171.044,182.161
0.443,43.995,5.746,5.769,239.219,171.047,182.232
0.444,44.111,5.778,5.778,239.311,171.054,182.303
0.446,44.225,5.804,5.790,239.400,171.066,182.374
0.447,44.337,5.826,5.807,239.485,171.081,182.446
0.448,44.446,5.843,5.826,239.566,171.098,182.517
0.449,44.553,5.855,5.846,239.642,171.116,182.590
0.451,44.657,5.861,5.867,239.715,171.133,182.662
0.452,44.759,5.862,5.887,239.783,171.148,182.736
0.453,44.857,5.859,5.905,239.846,171.161,182.811
0.454,44.953,5.850,5.920,239.904,171.170,182.887
0.456,45.047,5.836,5.931,239.957,171.174,182.964
0.457,45.139,5.817,5.938,240.005,171.172,183.042
0.458,45.230,5.797,5.941,240.048,171.164,183.122
0.459,45.323,5.775,5.942,240.087,171.150,183.205
0.461,45.417,5.753,5.941,240.123,171.132,183.290
0.462,45.515,5.733,5.938,240.158,171.108,183.378
0.463,45.616,5.716,5.934,240.191,171.081,183.470
0.464,45.723,5.704,5.930,240.224,171.051,183.567
0.466,45.834,5.697,5.925,240.259,171.018,183.668
0.467,45.952,5.695,5.922,240.295,170.983,183.774
0.468,46.076,5.699,5.918,240.333,170.946,183.886
0.469,46.207,5.706,5.916,240.376,170.908,184.004
0.471,46.346,5.717,5.914,240.423,170.870,184.129
0.472,46.493,5.731,5.913,240.476,170.832,184.261
0.473,46.649,5.746,5.913,240.535,170.795,184.401
0.474,46.816,5.763,5.914,240.602,170.759,184.549
0.476,46.991,5.781,5.917,240.675,170.724,184.704
0.477,47.173,5.799,5.922,240.753,170.692,184.865
0.478,47.359,5.818,5.929,240.834,170.660,185.030
0.479,47.547,5.837,5.940,240.916,170.630,185.197
0.481,47.735,5.857,5.956,240.996,170.602,185.365
0.482,47.921,5.878,5.977,241.073,170.575,185.531
0.483,48.101,5.899,6.005,241.144,170.550,185.695
0.484,48.274,5.921,6.040,241.208,170.526,185.854
0.486,48.437,5.944,6.083,241.262,170.503,186.006
0.487,48.589,5.967,6.133,241.305,170.482,186.150
0.488,48.728,5.989,6.190,241.335,170.462,186.285
0.489,48.853,6.009,6.251,241.349,170.443,186.407
0.491,48.964,6.027,6.314,241.345,170.426,186.517
0.492,49.063,6.042,6.378,241.322,170.410,186.611
0.493,49.153,6.052,6.442,241.282,170.395,186.691
0.494,49.237,6.057,6.503,241.229,170.382,186.755
0.496,49.317,6.057,6.561,241.169,170.371,186.807
0.497,49.391,6.050,6.613,241.108,170.361,186.846
0.498,49.456,6.037,6.655,241.050,170.353,186.874
0.499,49.508,6.020,6.686,241.000,170.347,186.892
0.501,49.545,5.998,6.701,240.966,170.343,186.900
0.502,49.560,5.973,6.699,240.950,170.342,186.900
0.503,49.572,5.943,6.677,240.959,170.343,186.893
0.504,49.614,5.912,6.631,240.999,170.346,186.880
0.506,49.691,5.878,6.558,241.074,170.352,186.862
0.507,49.810,5.842,6.461,241.190,170.361,186.839
0.508,49.974,5.804,6.345,241.352,170.373,186.813
0.509,50.189,5.766,6.217,241.565,170.388,186.785
