"T","Distance","Radius","FreeRadius","X","Y","Z"
0.000,0.000,1.304,1.304,239.840,210.936,215.127
0.001,0.122,1.307,1.307,239.837,210.820,215.167
0.003,0.244,1.311,1.311,239.835,210.705,215.206
0.004,0.365,1.319,1.319,239.832,210.590,215.247
0.006,0.487,1.332,1.332,239.830,210.477,215.289
0.007,0.607,1.351,1.351,239.827,210.364,215.332
0.008,0.727,1.378,1.378,239.824,210.253,215.378
0.010,0.847,1.415,1.415,239.821,210.144,215.427
0.011,0.965,1.463,1.463,239.819,210.037,215.478
0.013,1.083,1.521,1.521,239.816,209.933,215.533
0.014,1.201,1.586,1.586,239.813,209.831,215.593
0.015,1.319,1.658,1.658,239.810,209.733,215.656
0.017,1.436,1.732,1.732,239.807,209.637,215.725
0.018,1.553,1.807,1.807,239.803,209.546,215.799
0.019,1.672,1.881,1.881,239.800,209.459,215.878
0.021,1.790,1.951,1.951,239.796,209.376,215.963
0.022,1.908,2.016,2.016,239.791,209.299,216.052
0.024,2.025,2.077,2.077,239.785,209.228,216.145
0.025,2.139,2.135,2.135,239.778,209.165,216.239
0.026,2.250,2.189,2.189,239.768,209.110,216.335
0.028,2.358,2.241,2.241,239.756,209.064,216.432
0.029,2.461,2.291,2.291,239.740,209.028,216.528
0.031,2.561,2.339,2.339,239.722,209.003,216.623
0.032,2.657,2.386,2.386,239.700,208.990,216.715
0.033,2.749,2.431,2.431,239.673,208.989,216.804
0.035,2.840,2.474,2.474,239.642,209.002,216.888
0.036,2.931,2.515,2.515,239.606,209.030,216.967
0.038,3.025,2.553,2.553,239.564,209.073,217.040
0.039,3.125,2.589,2.589,239.518,209.130,217.107
0.040,3.232,2.621,2.621,239.468,209.201,217.170
0.042,3.346,2.650,2.650,239.417,209.283,217.231
0.043,3.467,2.677,2.677,239.367,209.373,217.293
0.045,3.593,2.703,2.703,239.319,209.470,217.357
0.046,3.723,2.729,2.729,239.275,209.572,217.426
0.047,3.858,2.756,2.756,239.237,209.676,217.502
0.049,3.997,2.786,2.786,239.206,209.781,217.587
0.050,4.139,2.820,2.820,239.186,209.885,217.683
0.052,4.288,2.860,2.860,239.176,209.985,217.793
0.053,4.444,2.906,2.906,239.180,210.080,217.918
0.054,4.612,2.961,2.961,239.199,210.166,218.060
0.056,4.795,3.027,3.027,239.235,210.243,218.222
0.057,4.996,3.104,3.104,239.288,210.309,218.404
0.058,5.215,3.196,3.196,239.357,210.365,218.604
0.060,5.448,3.303,3.303,239.438,210.411,218.818
0.061,5.692,3.428,3.428,239.530,210.448,219.041
0.063,5.944,3.567,3.567,239.630,210.477,219.270
0.064,6.199,3.715,3.715,239.735,210.500,219.502
0.065,6.454,3.863,3.863,239.842,210.516,219.732
0.067,6.703,4.006,4.006,239.949,210.527,219.957
0.068,6.942,4.136,4.136,240.053,210.535,220.173
0.070,7.168,4.246,4.246,240.152,210.539,220.376
0.071,7.375,4.330,4.330,240.242,210.540,220.562
0.072,7.559,4.384,4.384,240.322,210.540,220.728
0.074,7.716,4.415,4.415,240.389,210.540,220.869
0.075,7.841,4.427,4.427,240.440,210.540,220.984
0.077,7.936,4.428,4.428,240.476,210.541,221.072
0.078,8.004,4.425,4.425,240.498,210.543,221.136
0.079,8.049,4.423,4.423,240.508,210.546,221.179
0.081,8.075,4.429,4.429,240.507,210.551,221.205
0.082,8.090,4.447,4.447,240.497,210.558,221.214
0.084,8.110,4.477,4.477,240.479,210.567,221.212
0.085,8.140,4.513,4.513,240.455,210.579,221.199
0.086,8.178,4.554,4.554,240.427,210.593,221.179
0.088,8.221,4.594,4.594,240.395,210.610,221.155
0.089,8.269,4.630,4.630,240.361,210.631,221.129
0.091,8.317,4.659,4.659,240.327,210.656,221.104
0.092,8.366,4.677,4.677,240.294,210.684,221.083
0.093,8.412,4.685,4.685,240.264,210.717,221.068
0.095,8.458,4.687,4.687,240.238,210.753,221.061
0.096,8.505,4.686,4.686,240.213,210.793,221.063
0.097,8.554,4.686,4.686,240.192,210.836,221.073
0.099,8.606,4.689,4.689,240.171,210.881,221.091
0.100,8.663,4.699,4.699,240.153,210.927,221.118
0.102,8.725,4.720,4.720,240.135,210.975,221.154
0.103,8.792,4.752,4.752,240.117,211.022,221.198
0.104,8.866,4.793,4.793,240.099,211.069,221.252
0.106,8.946,4.841,4.841,240.081,211.115,221.315
0.107,9.033,4.892,4.892,240.061,211.160,221.387
0.109,9.127,4.946,4.946,240.040,211.202,221.468
0.110,9.229,5.000,5.000,240.017,211.242,221.559
0.111,9.339,5.052,5.052,239.992,211.277,221.660
0.113,9.457,5.099,5.099,239.964,211.309,221.770
0.114,9.581,5.143,5.143,239.933,211.338,221.887
0.116,9.709,5.184,5.184,239.900,211.362,222.008
0.117,9.838,5.223,5.223,239.865,211.384,222.131
0.118,9.967,5.260,5.260,239.829,211.402,222.252
0.120,10.092,5.297,5.297,239.792,211.418,222.371
0.121,10.211,5.333,5.333,239.754,211.431,222.483
0.123,10.322,5.369,5.369,239.715,211.441,222.587
0.124,10.422,5.403,5.403,239.676,211.450,222.679
0.125,10.510,5.434,5.434,239.638,211.456,222.758
0.127,10.584,5.459,5.459,239.600,211.461,222.820
0.128,10.641,5.477,5.477,239.562,211.464,222.864
0.130,10.684,5.486,5.486,239.526,211.466,222.886
0.131,10.718,5.483,5.483,239.492,211.467,222.886
0.132,10.756,5.467,5.467,239.459,211.466,222.866
0.134,10.800,5.441,5.441,239.430,211.465,222.834
0.135,10.847,5.407,5.407,239.404,211.463,222.794
0.136,10.894,5.371,5.371,239.382,211.459,222.752
0.138,10.936,5.335,5.335,239.365,211.455,222.715
0.139,10.966,5.305,5.305,239.353,211.450,222.687
0.141,10.981,5.285,5.285,239.348,211.444,222.676
0.142,10.993,5.277,5.277,239.349,211.436,222.685
0.143,11.031,5.284,5.284,239.358,211.428,222.721
0.145,11.103,5.303,5.303,239.374,211.419,222.791
0.146,11.214,5.333,5.333,239.400,211.410,222.898
0.148,11.370,5.370,5.370,239.435,211.399,223.050
0.149,11.577,5.413,5.413,239.480,211.387,223.252
0.150,11.832,5.460,5.460,239.535,211.375,223.500
0.152,12.127,5.508,5.508,239.597,211.362,223.788
0.153,12.454,5.557,5.557,239.666,211.350,224.108
0.155,12.805,5.606,5.606,239.738,211.337,224.451
0.156,13.172,5.656,5.656,239.814,211.325,224.810
0.157,13.547,5.708,5.708,239.890,211.313,225.177
0.159,13.923,5.763,5.763,239.966,211.303,225.545
0.160,14.290,5.821,5.821,240.040,211.294,225.905
0.162,14.642,5.883,5.883,240.111,211.286,226.249
0.163,14.970,5.949,5.949,240.175,211.280,226.571
0.164,15.266,6.018,6.018,240.233,211.276,226.861
0.166,15.522,6.086,6.086,240.282,211.275,227.113
0.167,15.731,6.152,6.152,240.321,211.276,227.318
0.169,15.889,6.212,6.212,240.348,211.280,227.473
0.170,16.002,6.265,6.265,240.367,211.285,227.585
0.171,16.076,6.307,6.307,240.377,211.292,227.657
0.173,16.116,6.337,6.337,240.381,211.299,227.697
0.174,16.130,6.355,6.355,240.381,211.305,227.710
0.175,16.142,6.364,6.364,240.376,211.310,227.700
0.177,16.168,6.364,6.364,240.370,211.313,227.675
0.178,16.204,6.359,6.359,240.364,211.314,227.640
0.180,16.244,6.351,6.351,240.359,211.311,227.599
0.181,16.284,6.340,6.340,240.356,211.303,227.560
0.182,16.319,6.331,6.331,240.358,211.291,227.528
0.184,16.347,6.323,6.323,240.365,211.272,227.508
0.185,16.376,6.317,6.317,240.380,211.248,227.505
0.187,16.420,6.314,6.314,240.403,211.216,227.525
0.188,16.484,6.314,6.314,240.434,211.178,227.566
0.189,16.566,6.316,6.316,240.472,211.135,227.624
0.191,16.663,6.322,6.322,240.517,211.089,227.697
0.192,16.773,6.331,6.332,240.567,211.040,227.782
0.194,16.893,6.344,6.345,240.622,210.990,227.876
0.195,17.020,6.360,6.360,240.681,210.939,227.977
0.196,17.152,6.377,6.378,240.744,210.890,228.081
0.198,17.284,6.395,6.396,240.809,210.843,228.186
0.199,17.414,6.413,6.413,240.876,210.799,228.289
0.201,17.539,6.430,6.430,240.945,210.761,228.386
0.202,17.657,6.444,6.444,241.014,210.728,228.476
0.203,17.765,6.455,6.455,241.082,210.701,228.556
0.205,17.861,6.464,6.464,241.149,210.684,228.622
0.206,17.946,6.471,6.470,241.214,210.673,228.674
0.208,18.020,6.477,6.476,241.276,210.668,228.716
0.209,18.083,6.483,6.482,241.331,210.668,228.747
0.210,18.138,6.489,6.489,241.380,210.671,228.769
0.212,18.181,6.497,6.497,241.421,210.675,228.785
0.213,18.214,6.507,6.507,241.453,210.679,228.794
0.214,18.235,6.518,6.519,241.473,210.682,228.800
0.216,18.243,6.529,6.531,241.480,210.681,228.802
0.217,18.252,6.539,6.542,241.474,210.676,228.804
0.219,18.276,6.547,6.549,241.452,210.665,228.805
0.220,18.320,6.551,6.553,241.413,210.647,228.809
0.221,18.384,6.549,6.550,241.355,210.619,228.815
0.223,18.470,6.541,6.540,241.278,210.581,228.827
0.224,18.579,6.527,6.524,241.182,210.532,228.844
0.226,18.705,6.510,6.505,241.072,210.476,228.867
0.227,18.843,6.494,6.486,240.952,210.414,228.897
0.228,18.990,6.480,6.472,240.827,210.348,228.935
0.230,19.140,6.473,6.465,240.700,210.282,228.980
0.231,19.289,6.474,6.470,240.577,210.216,229.033
0.233,19.434,6.488,6.489,240.462,210.154,229.096
0.234,19.572,6.515,6.525,240.359,210.098,229.167
0.235,19.700,6.550,6.570,240.272,210.050,229.249
0.237,19.819,6.588,6.618,240.207,210.012,229.341
0.238,19.933,6.624,6.663,240.166,209.987,229.444
0.240,20.048,6.652,6.698,240.156,209.977,229.558
0.241,20.177,6.667,6.716,240.180,209.984,229.685
0.242,20.329,6.664,6.711,240.240,210.010,229.823
0.244,20.510,6.639,6.678,240.334,210.051,229.971
0.245,20.717,6.594,6.622,240.456,210.106,230.129
0.247,20.946,6.533,6.548,240.603,210.171,230.293
0.248,21.195,6.461,6.464,240.770,210.244,230.463
0.249,21.459,6.383,6.376,240.952,210.322,230.637
0.251,21.733,6.301,6.292,241.147,210.402,230.812
0.252,22.012,6.221,6.217,241.349,210.481,230.988
0.253,22.292,6.147,6.159,241.554,210.556,231.163
0.255,22.567,6.078,6.118,241.758,210.625,231.334
0.256,22.833,6.015,6.089,241.956,210.684,231.501
0.258,23.085,5.956,6.070,242.145,210.732,231.661
0.259,23.319,5.900,6.057,242.319,210.764,231.814
0.260,23.532,5.846,6.047,242.476,210.780,231.957
0.262,23.725,5.792,6.035,242.615,210.779,232.090
0.263,23.901,5.737,6.019,242.739,210.762,232.214
0.265,24.063,5.682,5.998,242.848,210.733,232.330
0.266,24.213,5.628,5.970,242.945,210.692,232.438
0.267,24.355,5.576,5.938,243.031,210.641,232.538
0.269,24.490,5.527,5.901,243.107,210.581,232.632
0.270,24.619,5.484,5.860,243.177,210.515,232.720
0.272,24.745,5.448,5.817,243.240,210.444,232.801
0.273,24.867,5.419,5.771,243.299,210.370,232.878
0.274,24.985,5.400,5.723,243.356,210.294,232.949
0.276,25.101,5.387,5.673,243.412,210.219,233.017
0.277,25.214,5.380,5.623,243.469,210.145,233.081
0.279,25.324,5.376,5.572,243.528,210.075,233.142
0.280,25.432,5.374,5.521,243.590,210.008,233.201
0.281,25.538,5.371,5.470,243.654,209.946,233.258
0.283,25.642,5.367,5.421,243.719,209.889,233.314
0.284,25.743,5.358,5.373,243.785,209.835,233.370
0.286,25.843,5.346,5.328,243.850,209.786,233.426
0.287,25.940,5.330,5.290,243.914,209.740,233.484
0.288,26.035,5.312,5.260,243.976,209.699,233.543
0.290,26.129,5.291,5.242,244.035,209.663,233.606
0.291,26.221,5.269,5.237,244.090,209.630,233.672
0.292,26.313,5.246,5.248,244.141,209.601,233.742
0.294,26.404,5.223,5.278,244.187,209.577,233.817
0.295,26.496,5.199,5.323,244.227,209.557,233.898
0.297,26.591,5.175,5.376,244.260,209.540,233.986
0.298,26.690,5.152,5.429,244.286,209.528,234.080
0.299,26.792,5.129,5.477,244.306,209.519,234.180
0.301,26.898,5.106,5.513,244.322,209.512,234.284
0.302,27.007,5.085,5.528,244.336,209.507,234.392
0.304,27.118,5.065,5.517,244.347,209.502,234.503
0.305,27.231,5.046,5.478,244.359,209.497,234.615
0.306,27.345,5.028,5.418,244.372,209.491,234.728
0.308,27.458,5.010,5.343,244.388,209.483,234.840
0.309,27.571,4.993,5.258,244.409,209.473,234.950
0.311,27.683,4.975,5.171,244.435,209.459,235.058
0.312,27.794,4.956,5.087,244.468,209.441,235.163
0.313,27.904,4.937,5.013,244.509,209.418,235.262
0.315,28.015,4.917,4.953,244.561,209.389,235.356
0.316,28.128,4.897,4.907,244.623,209.354,235.444
0.318,28.244,4.879,4.874,244.695,209.313,235.524
0.319,28.362,4.863,4.852,244.775,209.267,235.599
0.320,28.482,4.851,4.841,244.861,209.218,235.667
0.322,28.604,4.845,4.839,244.952,209.166,235.729
0.323,28.726,4.845,4.845,245.045,209.112,235.785
0.325,28.846,4.853,4.858,245.140,209.058,235.835
0.326,28.963,4.867,4.877,245.234,209.005,235.880
0.327,29.075,4.884,4.900,245.326,208.953,235.920
0.329,29.181,4.903,4.925,245.413,208.904,235.954
0.330,29.279,4.921,4.952,245.494,208.858,235.984
0.331,29.367,4.937,4.978,245.568,208.817,236.009
0.333,29.444,4.947,5.002,245.633,208.782,236.029
0.334,29.507,4.950,5.022,245.687,208.754,236.045
0.336,29.556,4.947,5.039,245.730,208.732,236.057
0.337,29.594,4.939,5.051,245.762,208.715,236.067
0.338,29.622,4.929,5.060,245.786,208.704,236.074
0.340,29.640,4.918,5.066,245.802,208.696,236.080
0.341,29.652,4.908,5.069,245.812,208.692,236.085
0.343,29.659,4.901,5.068,245.815,208.689,236.091
0.344,29.666,4.900,5.065,245.814,208.688,236.098
0.345,29.676,4.904,5.058,245.809,208.687,236.106
0.347,29.690,4.913,5.050,245.801,208.685,236.118
0.348,29.708,4.924,5.039,245.791,208.682,236.132
0.350,29.730,4.935,5.027,245.781,208.677,236.152
0.351,29.758,4.946,5.012,245.771,208.669,236.176
0.352,29.791,4.954,4.997,245.763,208.656,236.206
0.354,29.832,4.957,4.980,245.756,208.639,236.242
0.355,29.880,4.956,4.962,245.752,208.618,236.285
0.357,29.935,4.949,4.945,245.750,208.592,236.334
0.358,29.998,4.939,4.927,245.752,208.562,236.388
0.359,30.067,4.925,4.911,245.756,208.528,236.449
0.361,30.144,4.908,4.897,245.764,208.491,236.516
0.362,30.228,4.890,4.885,245.775,208.449,236.588
0.364,30.319,4.870,4.876,245.790,208.404,236.665
0.365,30.417,4.851,4.870,245.809,208.355,236.748
0.366,30.522,4.831,4.867,245.833,208.304,236.837
0.368,30.634,4.813,4.867,245.861,208.249,236.930
0.369,30.753,4.796,4.867,245.894,208.191,237.029
0.370,30.879,4.781,4.867,245.932,208.130,237.132
0.372,31.012,4.769,4.866,245.976,208.066,237.241
0.373,31.152,4.761,4.862,246.024,207.999,237.353
0.375,31.298,4.757,4.856,246.076,207.929,237.471
0.376,31.451,4.756,4.849,246.132,207.855,237.592
0.377,31.610,4.760,4.842,246.192,207.777,237.718
0.379,31.776,4.765,4.838,246.255,207.696,237.847
0.380,31.947,4.773,4.840,246.320,207.610,237.980
0.382,32.124,4.783,4.851,246.387,207.519,238.116
0.383,32.307,4.794,4.872,246.456,207.423,238.256
0.384,32.495,4.805,4.907,246.525,207.322,238.399
0.386,32.688,4.816,4.955,246.596,207.215,238.544
0.387,32.887,4.829,5.014,246.666,207.103,238.692
0.389,33.091,4.846,5.079,246.736,206.985,238.842
0.390,33.300,4.866,5.148,246.805,206.860,238.995
0.391,33.512,4.891,5.218,246.874,206.730,239.149
0.393,33.726,4.923,5.284,246.940,206.597,239.302
0.394,33.940,4.962,5.344,247.006,206.462,239.454
0.396,34.151,5.009,5.395,247.069,206.326,239.603
0.397,34.359,5.062,5.438,247.130,206.190,239.748
0.398,34.560,5.118,5.473,247.189,206.058,239.888
0.400,34.754,5.177,5.501,247.245,205.930,240.021
0.401,34.937,5.235,5.523,247.299,205.807,240.146
0.403,35.108,5.291,5.538,247.349,205.691,240.262
0.404,35.265,5.342,5.549,247.396,205.584,240.367
0.405,35.406,5.387,5.555,247.439,205.487,240.460
0.407,35.529,5.426,5.557,247.479,205.402,240.540
0.408,35.633,5.458,5.556,247.514,205.330,240.605
0.409,35.716,5.484,5.554,247.545,205.272,240.656
0.411,35.780,5.506,5.549,247.572,205.227,240.693
0.412,35.828,5.523,5.544,247.594,205.193,240.719
0.414,35.861,5.535,5.540,247.611,205.170,240.734
0.415,35.879,5.543,5.536,247.624,205.157,240.739
0.416,35.888,5.548,5.534,247.631,205.153,240.737
0.418,35.898,5.549,5.532,247.634,205.157,240.728
0.419,35.917,5.546,5.533,247.631,205.168,240.714
0.421,35.943,5.538,5.534,247.623,205.186,240.696
0.422,35.976,5.527,5.537,247.609,205.208,240.675
0.423,36.016,5.511,5.542,247.590,205.235,240.653
0.425,36.061,5.491,5.548,247.565,205.265,240.632
0.426,36.110,5.467,5.556,247.534,205.298,240.611
0.428,36.163,5.442,5.564,247.498,205.332,240.593
0.429,36.217,5.418,5.573,247.458,205.365,240.578
0.430,36.269,5.396,5.581,247.419,205.397,240.566
0.432,36.318,5.380,5.589,247.381,205.426,240.556
0.433,36.359,5.371,5.595,247.347,205.450,240.549
0.435,36.391,5.371,5.599,247.321,205.467,240.546
0.436,36.411,5.382,5.602,247.304,205.477,240.545
0.437,36.416,5.400,5.601,247.299,205.477,240.548
0.439,36.432,5.423,5.598,247.309,205.465,240.555
0.440,36.469,5.447,5.593,247.335,205.442,240.564
0.442,36.530,5.469,5.584,247.382,205.404,240.578
0.443,36.619,5.486,5.573,247.450,205.350,240.595
0.444,36.738,5.496,5.558,247.543,205.280,240.615
0.446,36.888,5.494,5.540,247.662,205.191,240.640
0.447,37.069,5.484,5.521,247.806,205.085,240.668
0.448,37.275,5.469,5.502,247.971,204.966,240.700
0.450,37.503,5.452,5.487,248.154,204.835,240.734
0.451,37.748,5.437,5.476,248.353,204.696,240.770
0.453,38.006,5.427,5.472,248.563,204.551,240.808
0.454,38.273,5.426,5.477,248.782,204.404,240.848
0.455,38.544,5.436,5.493,249.006,204.256,240.888
0.457,38.816,5.458,5.519,249.232,204.111,240.929
0.458,39.085,5.488,5.552,249.458,203.970,240.970
0.460,39.346,5.522,5.587,249.679,203.838,241.010
0.461,39.595,5.558,5.623,249.893,203.716,241.050
0.462,39.829,5.593,5.655,250.096,203.608,241.089
0.464,40.043,5.623,5.680,250.286,203.516,241.126
0.465,40.237,5.645,5.695,250.461,203.440,241.160
0.467,40.413,5.657,5.699,250.622,203.379,241.193
0.468,40.571,5.662,5.695,250.770,203.332,241.223
0.469,40.712,5.660,5.683,250.905,203.297,241.251
0.471,40.839,5.653,5.667,251.027,203.274,241.276
0.472,40.952,5.642,5.649,251.137,203.260,241.298
0.474,41.053,5.629,5.631,251.236,203.255,241.316
0.475,41.143,5.614,5.614,251.324,203.258,241.331
0.476,41.222,5.600,5.602,251.402,203.266,241.342
0.478,41.292,5.586,5.593,251.471,203.279,241.350
0.479,41.354,5.572,5.589,251.530,203.296,241.353
0.481,41.408,5.559,5.588,251.581,203.315,241.352
0.482,41.455,5.545,5.590,251.624,203.334,241.346
0.483,41.497,5.532,5.596,251.660,203.353,241.336
0.485,41.536,5.518,5.606,251.691,203.370,241.322
0.486,41.572,5.505,5.618,251.720,203.384,241.306
0.487,41.607,5.493,5.634,251.749,203.393,241.288
0.489,41.643,5.484,5.650,251.780,203.396,241.270
0.490,41.682,5.479,5.668,251.815,203.391,241.252
0.492,41.729,5.479,5.686,251.857,203.377,241.236
0.493,41.787,5.486,5.703,251.907,203.353,241.222
0.494,41.859,5.502,5.718,251.969,203.317,241.212
0.496,41.948,5.527,5.731,252.043,203.268,241.206
0.497,42.059,5.561,5.742,252.133,203.204,241.206
0.499,42.193,5.601,5.752,252.241,203.123,241.212
0.500,42.355,5.647,5.763,252.369,203.025,241.226
0.501,42.545,5.695,5.775,252.518,202.909,241.248
0.503,42.761,5.745,5.790,252.686,202.777,241.277
0.504,42.997,5.793,5.808,252.869,202.633,241.314
0.506,43.250,5.838,5.831,253.065,202.478,241.356
0.507,43.515,5.878,5.858,253.269,202.317,241.405
0.508,43.787,5.912,5.887,253.479,202.153,241.458
0.510,44.062,5.938,5.913,253.692,201.988,241.516
0.511,44.335,5.955,5.935,253.903,201.825,241.577
0.513,44.602,5.962,5.949,254.109,201.669,241.641
0.514,44.858,5.957,5.952,254.308,201.521,241.707
0.515,45.099,5.939,5.940,254.496,201.385,241.775
0.517,45.321,5.909,5.913,254.669,201.264,241.843
0.518,45.520,5.868,5.874,254.824,201.162,241.911
0.519,45.691,5.822,5.828,254.959,201.080,241.979
0.521,45.837,5.775,5.780,255.073,201.019,242.047
0.522,45.962,5.731,5.735,255.169,200.978,242.115
0.524,46.072,5.695,5.696,255.250,200.954,242.185
0.525,46.171,5.669,5.669,255.318,200.947,242.258
0.526,46.267,5.658,5.658,255.375,200.955,242.333
0.528,46.363,5.660,5.660,255.425,200.976,242.414
0.529,46.465,5.670,5.671,255.469,201.008,242.499
0.531,46.574,5.686,5.687,255.510,201.051,242.591
0.532,46.693,5.703,5.705,255.550,201.102,242.690
0.533,46.822,5.717,5.719,255.593,201.160,242.798
0.535,46.962,5.726,5.727,255.639,201.224,242.914
0.536,47.115,5.724,5.723,255.693,201.291,243.040
0.538,47.281,5.713,5.708,255.756,201.361,243.177
0.539,47.460,5.694,5.686,255.829,201.432,243.324
0.540,47.650,5.670,5.659,255.910,201.504,243.480
0.542,47.848,5.643,5.631,255.997,201.575,243.643
0.543,48.051,5.616,5.606,256.088,201.646,243.810
0.545,48.258,5.591,5.585,256.180,201.717,243.981
0.546,48.464,5.570,5.574,256.273,201.786,244.152
0.547,48.669,5.555,5.573,256.364,201.852,244.323
0.549,48.868,5.543,5.580,256.451,201.917,244.490
0.550,49.060,5.535,5.594,256.532,201.978,244.653
0.552,49.241,5.529,5.611,256.604,202.036,244.809
0.553,49.410,5.523,5.632,256.667,202.089,244.956
0.554,49.564,5.517,5.653,256.717,202.138,245.093
0.556,49.700,5.509,5.672,256.754,202.182,245.217
0.557,49.819,5.499,5.689,256.775,202.220,245.327
0.558,49.922,5.487,5.703,256.784,202.253,245.424
0.560,50.010,5.474,5.713,256.783,202.281,245.508
0.561,50.086,5.461,5.720,256.776,202.303,245.580
0.563,50.150,5.449,5.723,256.765,202.319,245.641
0.564,50.203,5.439,5.724,256.753,202.331,245.692
0.565,50.245,5.432,5.720,256.743,202.337,245.732
0.567,50.277,5.428,5.713,256.739,202.338,245.764
