"T","Distance","Radius","FreeRadius","X","Y","Z"
0.000,0.000,1.421,1.421,196.790,185.432,155.967
0.001,0.268,1.606,1.606,196.627,185.637,156.024
0.003,0.534,1.789,1.789,196.465,185.840,156.081
0.004,0.795,1.967,1.967,196.307,186.040,156.137
0.005,1.049,2.138,2.138,196.154,186.236,156.192
0.006,1.295,2.299,2.299,196.007,186.425,156.246
0.008,1.528,2.447,2.447,195.868,186.606,156.297
0.009,1.749,2.580,2.580,195.740,186.778,156.346
0.010,1.953,2.695,2.695,195.622,186.939,156.392
0.012,2.139,2.791,2.791,195.518,187.087,156.435
0.013,2.305,2.871,2.871,195.429,187.221,156.474
0.014,2.449,2.935,2.935,195.355,187.340,156.509
0.015,2.568,2.986,2.986,195.300,187.441,156.539
0.017,2.661,3.027,3.027,195.265,187.523,156.565
0.018,2.730,3.059,3.059,195.248,187.587,156.585
0.019,2.778,3.086,3.086,195.246,187.633,156.599
0.020,2.812,3.109,3.109,195.255,187.665,156.608
0.022,2.837,3.129,3.129,195.271,187.684,156.609
0.023,2.857,3.149,3.149,195.289,187.692,156.604
0.024,2.878,3.167,3.167,195.305,187.691,156.591
0.026,2.902,3.185,3.185,195.315,187.684,156.570
0.027,2.933,3.203,3.203,195.316,187.672,156.541
0.028,2.976,3.221,3.221,195.302,187.658,156.503
0.029,3.035,3.240,3.240,195.270,187.643,156.457
0.031,3.114,3.260,3.260,195.216,187.630,156.400
0.032,3.220,3.282,3.282,195.135,187.620,156.333
0.033,3.355,3.308,3.308,195.024,187.616,156.256
0.035,3.519,3.338,3.338,194.885,187.619,156.170
0.036,3.707,3.374,3.374,194.723,187.629,156.074
0.037,3.915,3.418,3.418,194.543,187.647,155.969
0.038,4.140,3.470,3.470,194.351,187.674,155.858
0.040,4.376,3.532,3.532,194.149,187.710,155.739
0.041,4.620,3.606,3.606,193.945,187.756,155.615
0.042,4.867,3.691,3.691,193.742,187.812,155.486
0.043,5.113,3.784,3.784,193.546,187.879,155.352
0.045,5.357,3.885,3.885,193.361,187.958,155.215
0.046,5.594,3.990,3.990,193.192,188.049,155.076
0.047,5.823,4.097,4.097,193.044,188.153,154.935
0.049,6.044,4.204,4.204,192.923,188.271,154.793
0.050,6.258,4.309,4.309,192.830,188.402,154.651
0.051,6.468,4.409,4.409,192.765,188.543,154.510
0.052,6.676,4.503,4.503,192.723,188.692,154.371
0.054,6.882,4.591,4.591,192.701,188.846,154.236
0.055,7.085,4.672,4.672,192.697,189.002,154.105
0.056,7.284,4.746,4.746,192.708,189.156,153.981
0.058,7.476,4.812,4.812,192.730,189.306,153.863
0.059,7.659,4.870,4.870,192.761,189.449,153.754
0.060,7.829,4.920,4.920,192.798,189.582,153.654
0.061,7.983,4.960,4.960,192.837,189.701,153.564
0.063,8.118,4.993,4.993,192.875,189.805,153.486
0.064,8.230,5.018,5.018,192.910,189.889,153.421
0.065,8.316,5.037,5.037,192.939,189.952,153.371
0.066,8.375,5.052,5.052,192.960,189.993,153.333
0.068,8.412,5.063,5.063,192.974,190.016,153.308
0.069,8.431,5.071,5.071,192.982,190.024,153.294
0.070,8.438,5.078,5.078,192.986,190.021,153.288
0.072,8.449,5.085,5.085,192.985,190.009,153.289
0.073,8.467,5.092,5.092,192.980,189.994,153.296
0.074,8.488,5.099,5.099,192.973,189.977,153.307
0.075,8.510,5.106,5.106,192.964,189.962,153.319
0.077,8.529,5.113,5.113,192.954,189.953,153.333
0.078,8.545,5.119,5.119,192.944,189.952,153.345
0.079,8.563,5.125,5.125,192.934,189.965,153.354
0.081,8.593,5.130,5.130,192.926,189.993,153.359
0.082,8.639,5.134,5.134,192.920,190.039,153.359
0.083,8.703,5.138,5.138,192.916,190.102,153.353
0.084,8.783,5.142,5.142,192.914,190.181,153.341
0.086,8.875,5.149,5.149,192.914,190.272,153.326
0.087,8.978,5.157,5.157,192.916,190.373,153.306
0.088,9.090,5.169,5.169,192.919,190.483,153.283
0.090,9.209,5.185,5.185,192.925,190.598,153.258
0.091,9.331,5.205,5.205,192.932,190.717,153.230
0.092,9.455,5.232,5.232,192.942,190.837,153.202
0.093,9.578,5.263,5.263,192.952,190.957,153.172
0.095,9.698,5.297,5.297,192.965,191.072,153.142
0.096,9.813,5.332,5.332,192.978,191.183,153.112
0.097,9.921,5.367,5.367,192.994,191.285,153.084
0.098,10.019,5.401,5.401,193.010,191.378,153.056
0.100,10.108,5.431,5.431,193.027,191.462,153.032
0.101,10.187,5.456,5.456,193.043,191.536,153.010
0.102,10.256,5.476,5.476,193.058,191.601,152.992
0.104,10.316,5.488,5.488,193.071,191.657,152.978
0.105,10.364,5.493,5.493,193.081,191.704,152.969
0.106,10.403,5.491,5.491,193.087,191.743,152.966
0.107,10.433,5.480,5.480,193.089,191.772,152.970
0.109,10.456,5.461,5.461,193.085,191.792,152.981
0.110,10.481,5.433,5.433,193.075,191.804,153.000
0.111,10.513,5.396,5.396,193.059,191.807,153.028
0.113,10.558,5.350,5.350,193.034,191.802,153.065
0.114,10.617,5.299,5.299,193.001,191.788,153.112
0.115,10.688,5.246,5.246,192.961,191.769,153.167
0.116,10.765,5.195,5.195,192.916,191.747,153.225
0.118,10.842,5.149,5.149,192.867,191.727,153.282
0.119,10.916,5.113,5.113,192.817,191.712,153.335
0.120,10.983,5.091,5.091,192.769,191.707,153.380
0.121,11.039,5.085,5.085,192.723,191.714,153.411
0.123,11.088,5.097,5.097,192.682,191.738,153.426
0.124,11.143,5.122,5.122,192.649,191.782,153.421
0.125,11.222,5.155,5.155,192.624,191.849,153.390
0.127,11.335,5.190,5.190,192.611,191.945,153.331
0.128,11.491,5.221,5.221,192.612,192.071,153.239
0.129,11.698,5.242,5.242,192.628,192.233,153.110
0.130,11.960,5.248,5.248,192.660,192.432,152.943
0.132,12.269,5.234,5.234,192.708,192.662,152.742
0.133,12.618,5.198,5.198,192.767,192.919,152.514
0.134,12.997,5.145,5.145,192.836,193.196,152.265
0.136,13.399,5.082,5.082,192.912,193.489,152.000
0.137,13.813,5.015,5.015,192.993,193.790,151.727
0.138,14.233,4.950,4.950,193.076,194.094,151.451
0.139,14.648,4.894,4.894,193.159,194.396,151.178
0.141,15.050,4.853,4.853,193.239,194.689,150.916
0.142,15.430,4.833,4.833,193.314,194.969,150.669
0.143,15.780,4.835,4.835,193.382,195.228,150.444
0.145,16.090,4.856,4.856,193.439,195.462,150.248
0.146,16.354,4.892,4.892,193.484,195.664,150.086
0.147,16.568,4.937,4.937,193.516,195.834,149.959
0.148,16.738,4.988,4.988,193.535,195.975,149.865
0.150,16.870,5.040,5.040,193.545,196.089,149.799
0.151,16.971,5.090,5.090,193.544,196.181,149.757
0.152,17.046,5.132,5.132,193.536,196.253,149.737
0.153,17.104,5.166,5.166,193.522,196.308,149.733
0.155,17.152,5.193,5.193,193.502,196.351,149.743
0.156,17.196,5.213,5.213,193.478,196.383,149.762
0.157,17.241,5.228,5.228,193.451,196.410,149.787
0.159,17.287,5.239,5.239,193.424,196.433,149.814
0.160,17.331,5.248,5.248,193.396,196.457,149.839
0.161,17.374,5.255,5.255,193.369,196.484,149.858
0.162,17.416,5.262,5.262,193.345,196.518,149.869
0.164,17.462,5.269,5.269,193.324,196.558,149.870
0.165,17.512,5.277,5.277,193.305,196.604,149.863
0.166,17.568,5.287,5.287,193.290,196.656,149.848
0.168,17.629,5.299,5.299,193.276,196.712,149.827
0.169,17.697,5.313,5.313,193.266,196.772,149.799
0.170,17.769,5.331,5.331,193.258,196.836,149.766
0.171,17.845,5.352,5.352,193.252,196.902,149.729
0.173,17.925,5.376,5.376,193.248,196.971,149.687
0.174,18.008,5.405,5.405,193.247,197.040,149.643
0.175,18.093,5.435,5.435,193.249,197.111,149.596
0.176,18.178,5.467,5.467,193.252,197.181,149.548
0.178,18.264,5.499,5.499,193.258,197.251,149.499
0.179,18.349,5.530,5.530,193.265,197.320,149.450
0.180,18.432,5.559,5.559,193.274,197.388,149.401
0.182,18.514,5.585,5.585,193.284,197.454,149.355
0.183,18.594,5.608,5.608,193.294,197.520,149.310
0.184,18.671,5.627,5.627,193.304,197.584,149.269
0.185,18.744,5.642,5.642,193.313,197.647,149.232
0.187,18.814,5.655,5.655,193.320,197.708,149.199
0.188,18.881,5.666,5.666,193.326,197.769,149.172
0.189,18.944,5.676,5.676,193.329,197.828,149.151
0.191,19.003,5.685,5.685,193.329,197.885,149.136
0.192,19.060,5.693,5.693,193.326,197.942,149.130
0.193,19.115,5.702,5.702,193.318,197.997,149.132
0.194,19.171,5.711,5.711,193.306,198.050,149.143
0.196,19.230,5.720,5.720,193.289,198.102,149.163
0.197,19.292,5.730,5.730,193.268,198.154,149.189
0.198,19.357,5.740,5.740,193.243,198.205,149.222
0.199,19.426,5.752,5.752,193.214,198.256,149.259
0.201,19.497,5.764,5.764,193.183,198.307,149.298
0.202,19.571,5.776,5.776,193.150,198.359,149.339
0.203,19.647,5.790,5.790,193.114,198.411,149.379
0.205,19.723,5.804,5.804,193.077,198.466,149.418
0.206,19.799,5.819,5.819,193.039,198.521,149.454
0.207,19.876,5.833,5.833,193.000,198.579,149.485
0.208,19.952,5.849,5.849,192.961,198.640,149.510
0.210,20.028,5.864,5.864,192.923,198.703,149.527
0.211,20.105,5.878,5.878,192.885,198.769,149.536
0.212,20.183,5.892,5.892,192.848,198.838,149.538
0.214,20.262,5.906,5.906,192.812,198.908,149.532
0.215,20.341,5.919,5.919,192.778,198.979,149.520
0.216,20.420,5.930,5.930,192.746,199.049,149.502
0.217,20.499,5.940,5.941,192.716,199.118,149.481
0.219,20.576,5.949,5.949,192.689,199.186,149.456
0.220,20.650,5.956,5.956,192.665,199.251,149.429
0.221,20.721,5.960,5.960,192.644,199.312,149.400
0.223,20.787,5.962,5.962,192.626,199.368,149.371
0.224,20.847,5.962,5.962,192.613,199.420,149.342
0.225,20.901,5.960,5.960,192.603,199.465,149.315
0.226,20.947,5.956,5.956,192.598,199.504,149.290
0.228,20.986,5.951,5.950,192.597,199.535,149.267
0.229,21.018,5.944,5.944,192.599,199.560,149.248
0.230,21.043,5.938,5.938,192.604,199.580,149.232
0.231,21.064,5.931,5.931,192.609,199.595,149.220
0.233,21.079,5.925,5.925,192.615,199.607,149.211
0.234,21.090,5.919,5.919,192.619,199.615,149.206
0.235,21.097,5.914,5.915,192.622,199.622,149.205
0.237,21.103,5.911,5.912,192.621,199.627,149.208
0.238,21.113,5.910,5.911,192.617,199.631,149.216
0.239,21.130,5.911,5.912,192.607,199.637,149.228
0.240,21.154,5.916,5.916,192.591,199.643,149.246
0.242,21.188,5.923,5.924,192.568,199.651,149.268
0.243,21.231,5.935,5.934,192.536,199.663,149.295
0.244,21.281,5.948,5.947,192.500,199.679,149.326
0.246,21.337,5.962,5.960,192.461,199.701,149.359
0.247,21.395,5.972,5.969,192.423,199.732,149.391
0.248,21.456,5.975,5.972,192.390,199.774,149.420
0.249,21.521,5.968,5.965,192.365,199.828,149.446
0.251,21.593,5.949,5.947,192.351,199.896,149.464
0.252,21.678,5.914,5.913,192.352,199.981,149.474
0.253,21.783,5.859,5.860,192.372,200.084,149.473
0.254,21.914,5.786,5.790,192.413,200.207,149.460
0.256,22.076,5.696,5.703,192.480,200.352,149.431
0.257,22.275,5.593,5.603,192.575,200.522,149.387
0.258,22.517,5.479,5.491,192.702,200.717,149.323
0.260,22.803,5.358,5.369,192.862,200.939,149.240
0.261,23.125,5.232,5.240,193.050,201.181,149.140
0.262,23.476,5.104,5.107,193.260,201.438,149.027
0.263,23.847,4.977,4.971,193.485,201.705,148.903
0.265,24.228,4.853,4.835,193.720,201.976,148.772
0.266,24.613,4.733,4.704,193.959,202.246,148.637
0.267,24.991,4.618,4.580,194.195,202.508,148.502
0.269,25.354,4.509,4.466,194.423,202.757,148.368
0.270,25.694,4.409,4.368,194.637,202.988,148.241
0.271,26.001,4.317,4.287,194.830,203.195,148.122
0.272,26.266,4.235,4.227,194.997,203.372,148.014
0.274,26.482,4.165,4.192,195.132,203.513,147.922
0.275,26.641,4.105,4.178,195.229,203.614,147.848
0.276,26.743,4.057,4.182,195.288,203.675,147.792
0.277,26.799,4.018,4.199,195.315,203.704,147.753
0.279,26.824,3.988,4.222,195.316,203.708,147.728
0.280,26.851,3.968,4.248,195.297,203.693,147.716
0.281,26.895,3.955,4.272,195.262,203.667,147.714
0.283,26.949,3.950,4.288,195.218,203.635,147.722
0.284,27.006,3.951,4.292,195.171,203.607,147.737
0.285,27.060,3.957,4.284,195.125,203.587,147.756
0.286,27.104,3.964,4.265,195.088,203.584,147.779
0.288,27.144,3.969,4.235,195.063,203.604,147.803
0.289,27.200,3.970,4.198,195.057,203.654,147.827
0.290,27.291,3.963,4.153,195.076,203.741,147.848
0.292,27.430,3.945,4.101,195.123,203.870,147.865
0.293,27.612,3.914,4.045,195.198,204.036,147.878
0.294,27.831,3.867,3.985,195.295,204.232,147.888
0.295,28.079,3.807,3.923,195.410,204.451,147.895
0.297,28.347,3.740,3.861,195.541,204.685,147.900
0.298,28.627,3.670,3.801,195.683,204.927,147.904
0.299,28.912,3.601,3.745,195.832,205.169,147.907
0.301,29.193,3.538,3.694,195.985,205.405,147.910
0.302,29.462,3.486,3.651,196.137,205.627,147.913
0.303,29.711,3.450,3.617,196.284,205.828,147.918
0.304,29.932,3.433,3.594,196.423,206.000,147.924
0.306,30.119,3.431,3.581,196.550,206.136,147.933
0.307,30.264,3.441,3.575,196.661,206.229,147.945
0.308,30.371,3.459,3.574,196.754,206.279,147.960
0.309,30.450,3.481,3.578,196.830,206.294,147.977
0.311,30.514,3.502,3.584,196.890,206.283,147.995
0.312,30.569,3.518,3.590,196.936,206.257,148.013
0.313,30.617,3.525,3.594,196.968,206.226,148.030
0.315,30.655,3.521,3.596,196.987,206.197,148.045
0.316,30.676,3.508,3.595,196.995,206.183,148.058
0.317,30.688,3.491,3.593,196.992,206.191,148.067
0.318,30.731,3.471,3.591,196.981,206.232,148.071
0.320,30.816,3.453,3.589,196.961,206.315,148.070
0.321,30.954,3.439,3.589,196.935,206.450,148.061
0.322,31.154,3.434,3.591,196.903,206.646,148.045
0.324,31.423,3.441,3.596,196.866,206.912,148.021
0.325,31.759,3.461,3.606,196.826,207.244,147.988
0.326,32.149,3.493,3.623,196.782,207.629,147.948
0.327,32.582,3.538,3.651,196.736,208.057,147.903
0.329,33.046,3.594,3.692,196.687,208.516,147.854
0.330,33.530,3.660,3.749,196.638,208.995,147.801
0.331,34.023,3.735,3.826,196.588,209.483,147.747
0.332,34.514,3.818,3.925,196.537,209.968,147.692
0.334,34.990,3.908,4.048,196.488,210.438,147.637
0.335,35.441,4.004,4.195,196.439,210.883,147.585
0.336,35.855,4.103,4.358,196.392,211.292,147.535
0.338,36.221,4.204,4.527,196.348,211.652,147.489
0.339,36.527,4.303,4.695,196.307,211.953,147.449
0.340,36.767,4.399,4.853,196.270,212.187,147.415
0.341,36.945,4.489,4.992,196.236,212.359,147.387
0.343,37.068,4.572,5.104,196.205,212.477,147.365
0.344,37.145,4.644,5.180,196.177,212.546,147.347
0.345,37.184,4.705,5.219,196.153,212.574,147.333
0.347,37.209,4.756,5.228,196.131,212.567,147.324
0.348,37.249,4.797,5.212,196.112,212.532,147.317
0.349,37.307,4.829,5.179,196.096,212.476,147.314
0.350,37.379,4.853,5.136,196.083,212.405,147.312
0.352,37.458,4.869,5.089,196.071,212.327,147.312
0.353,37.538,4.877,5.046,196.062,212.248,147.313
0.354,37.612,4.879,5.012,196.055,212.175,147.315
0.355,37.673,4.876,4.991,196.050,212.114,147.317
0.357,37.718,4.869,4.980,196.046,212.068,147.319
0.358,37.749,4.860,4.977,196.042,212.038,147.320
0.359,37.766,4.849,4.980,196.037,212.022,147.322
0.361,37.775,4.838,4.987,196.029,212.019,147.325
0.362,37.790,4.828,4.997,196.018,212.030,147.327
0.363,37.819,4.822,5.006,196.001,212.053,147.330
0.364,37.861,4.819,5.014,195.979,212.088,147.334
0.366,37.916,4.821,5.020,195.949,212.134,147.339
0.367,37.985,4.827,5.025,195.910,212.191,147.345
0.368,38.068,4.835,5.029,195.862,212.258,147.352
0.370,38.166,4.846,5.034,195.802,212.334,147.361
0.371,38.278,4.858,5.040,195.730,212.419,147.371
0.372,38.405,4.872,5.047,195.644,212.513,147.382
0.373,38.546,4.886,5.057,195.547,212.615,147.395
0.375,38.702,4.900,5.070,195.440,212.727,147.407
0.376,38.870,4.914,5.088,195.324,212.848,147.417
0.377,39.049,4.929,5.109,195.202,212.980,147.426
0.379,39.240,4.945,5.135,195.076,213.123,147.431
0.380,39.441,4.963,5.166,194.947,213.277,147.432
0.381,39.652,4.984,5.203,194.817,213.443,147.428
0.382,39.873,5.008,5.246,194.688,213.622,147.418
0.384,40.103,5.036,5.294,194.563,213.815,147.400
0.385,40.343,5.068,5.349,194.443,214.021,147.374
0.386,40.594,5.106,5.411,194.329,214.242,147.339
0.387,40.856,5.152,5.478,194.225,214.477,147.293
0.389,41.129,5.205,5.551,194.130,214.727,147.237
0.390,41.410,5.268,5.629,194.045,214.987,147.172
0.391,41.697,5.342,5.711,193.970,215.254,147.100
0.393,41.985,5.429,5.798,193.904,215.524,147.021
0.394,42.273,5.529,5.889,193.846,215.793,146.938
0.395,42.555,5.644,5.983,193.798,216.057,146.851
0.396,42.828,5.769,6.078,193.757,216.313,146.763
0.398,43.089,5.899,6.171,193.725,216.556,146.675
0.399,43.334,6.029,6.259,193.701,216.783,146.588
0.400,43.558,6.155,6.340,193.684,216.990,146.503
0.402,43.758,6.271,6.410,193.674,217.174,146.423
0.403,43.931,6.372,6.468,193.672,217.330,146.348
0.404,44.073,6.453,6.510,193.676,217.454,146.281
0.405,44.187,6.511,6.535,193.686,217.550,146.221
0.407,44.277,6.547,6.546,193.703,217.620,146.167
0.408,44.349,6.566,6.546,193.725,217.670,146.119
0.409,44.411,6.570,6.539,193.753,217.703,146.075
0.410,44.467,6.563,6.528,193.787,217.725,146.036
0.412,44.521,6.549,6.518,193.825,217.740,146.001
0.413,44.577,6.530,6.513,193.869,217.752,145.968
0.414,44.635,6.511,6.515,193.917,217.766,145.938
0.416,44.699,6.494,6.527,193.969,217.786,145.909
0.417,44.769,6.479,6.548,194.026,217.817,145.881
0.418,44.850,6.469,6.576,194.086,217.864,145.852
0.419,44.947,6.463,6.610,194.150,217.930,145.823
0.421,45.063,6.463,6.647,194.217,218.019,145.793
0.422,45.196,6.469,6.686,194.287,218.128,145.761
0.423,45.343,6.483,6.725,194.358,218.253,145.729
0.425,45.502,6.504,6.762,194.429,218.391,145.697
0.426,45.668,6.534,6.795,194.500,218.538,145.665
0.427,45.839,6.570,6.826,194.570,218.691,145.634
0.428,46.009,6.610,6.852,194.637,218.845,145.603
0.430,46.177,6.653,6.875,194.701,218.997,145.574
0.431,46.337,6.696,6.895,194.760,219.143,145.546
0.432,46.486,6.738,6.911,194.814,219.280,145.521
0.434,46.621,6.777,6.923,194.862,219.404,145.498
0.435,46.737,6.811,6.931,194.903,219.511,145.478
0.436,46.831,6.838,6.935,194.935,219.598,145.462
0.437,46.903,6.859,6.936,194.960,219.663,145.448
0.439,46.953,6.875,6.935,194.977,219.709,145.438
0.440,46.985,6.886,6.933,194.988,219.738,145.431
0.441,47.001,6.892,6.929,194.993,219.753,145.426
0.442,47.004,6.895,6.926,194.994,219.755,145.424
0.444,47.013,6.894,6.923,194.992,219.747,145.424
0.445,47.030,6.890,6.921,194.987,219.731,145.426
0.446,47.053,6.884,6.920,194.981,219.709,145.429
0.448,47.079,6.876,6.922,194.973,219.684,145.434
0.449,47.107,6.867,6.925,194.967,219.657,145.440
0.450,47.134,6.858,6.930,194.961,219.632,145.447
0.451,47.158,6.849,6.937,194.958,219.610,145.454
0.453,47.176,6.841,6.946,194.958,219.593,145.462
0.454,47.190,6.836,6.957,194.961,219.582,145.470
0.455,47.201,6.833,6.970,194.969,219.578,145.477
0.457,47.213,6.832,6.984,194.980,219.579,145.482
0.458,47.231,6.834,6.999,194.996,219.586,145.485
0.459,47.255,6.836,7.013,195.016,219.598,145.485
0.460,47.287,6.839,7.024,195.041,219.617,145.482
0.462,47.326,6.842,7.033,195.072,219.642,145.474
0.463,47.375,6.844,7.036,195.107,219.672,145.461
0.464,47.433,6.844,7.034,195.149,219.709,145.443
0.465,47.502,6.841,7.025,195.196,219.751,145.418
0.467,47.580,6.837,7.009,195.250,219.799,145.387
0.468,47.670,6.829,6.988,195.310,219.854,145.348
0.469,47.771,6.821,6.964,195.377,219.913,145.301
0.471,47.880,6.810,6.939,195.448,219.976,145.248
0.472,47.994,6.798,6.913,195.522,220.041,145.191
0.473,48.110,6.785,6.888,195.599,220.106,145.132
0.474,48.226,6.771,6.867,195.675,220.170,145.073
0.476,48.339,6.757,6.850,195.750,220.231,145.014
0.477,48.445,6.742,6.837,195.822,220.286,144.959
0.478,48.542,6.728,6.829,195.889,220.334,144.908
0.480,48.627,6.715,6.825,195.950,220.374,144.865
0.481,48.698,6.703,6.824,196.004,220.403,144.829
0.482,48.752,6.693,6.826,196.049,220.421,144.804
0.483,48.788,6.685,6.832,196.083,220.424,144.792
0.485,48.813,6.680,6.840,196.104,220.412,144.792
0.486,48.844,6.677,6.850,196.115,220.387,144.805
0.487,48.884,6.677,6.860,196.116,220.352,144.827
0.488,48.932,6.676,6.868,196.111,220.313,144.852
0.490,48.980,6.674,6.874,196.102,220.273,144.878
0.491,49.023,6.668,6.873,196.091,220.238,144.901
0.492,49.055,6.657,6.865,196.081,220.211,144.916
0.494,49.071,6.639,6.848,196.073,220.198,144.919
0.495,49.083,6.612,6.819,196.072,220.202,144.908
0.496,49.124,6.576,6.777,196.078,220.229,144.877
0.497,49.202,6.530,6.723,196.095,220.282,144.823
0.499,49.323,6.475,6.660,196.124,220.367,144.741
0.500,49.493,6.414,6.589,196.169,220.486,144.629
0.501,49.716,6.346,6.512,196.230,220.645,144.484
0.503,49.987,6.273,6.431,196.306,220.837,144.308
0.504,50.298,6.197,6.348,196.395,221.057,144.108
0.505,50.639,6.117,6.265,196.493,221.298,143.889
0.506,51.002,6.036,6.183,196.597,221.556,143.655
0.508,51.379,5.955,6.103,196.706,221.822,143.411
0.509,51.761,5.873,6.024,196.816,222.093,143.164
0.510,52.141,5.793,5.947,196.925,222.360,142.918
0.512,52.509,5.715,5.870,197.029,222.619,142.678
0.513,52.858,5.639,5.793,197.127,222.863,142.449
0.514,53.178,5.568,5.716,197.215,223.087,142.236
0.515,53.462,5.502,5.640,197.290,223.283,142.045
0.517,53.702,5.441,5.563,197.351,223.446,141.881
0.518,53.893,5.387,5.489,197.396,223.574,141.746
0.519,54.041,5.340,5.421,197.426,223.669,141.637
0.520,54.148,5.300,5.359,197.445,223.735,141.555
