"T","Distance","Radius","FreeRadius","X","Y","Z"
0.000,0.000,2.162,2.162,231.708,204.782,197.254
0.002,0.221,2.212,2.212,231.736,204.904,197.437
0.003,0.441,2.263,2.263,231.764,205.025,197.619
0.005,0.658,2.315,2.315,231.791,205.144,197.798
0.006,0.870,2.369,2.369,231.819,205.260,197.973
0.008,1.075,2.426,2.426,231.846,205.372,198.143
0.009,1.273,2.487,2.487,231.873,205.479,198.307
0.011,1.461,2.553,2.553,231.900,205.581,198.463
0.012,1.638,2.622,2.622,231.926,205.675,198.610
0.014,1.803,2.693,2.693,231.953,205.763,198.747
0.015,1.953,2.762,2.762,231.979,205.841,198.872
0.017,2.087,2.828,2.828,232.004,205.910,198.985
0.018,2.205,2.888,2.888,232.029,205.968,199.084
0.020,2.304,2.940,2.940,232.053,206.016,199.168
0.021,2.387,2.980,2.980,232.077,206.052,199.238
0.023,2.456,3.011,3.011,232.101,206.079,199.298
0.024,2.514,3.035,3.035,232.124,206.097,199.347
0.026,2.562,3.053,3.053,232.146,206.107,199.389
0.027,2.604,3.068,3.068,232.167,206.110,199.425
0.029,2.641,3.083,3.083,232.187,206.106,199.456
0.031,2.678,3.099,3.099,232.207,206.097,199.485
0.032,2.714,3.119,3.119,232.225,206.082,199.514
0.034,2.753,3.143,3.143,232.243,206.064,199.543
0.035,2.796,3.170,3.170,232.260,206.043,199.576
0.037,2.843,3.202,3.202,232.275,206.019,199.613
0.038,2.895,3.236,3.236,232.290,205.994,199.656
0.040,2.952,3.275,3.275,232.305,205.967,199.705
0.041,3.014,3.316,3.316,232.323,205.941,199.758
0.043,3.081,3.360,3.360,232.343,205.914,199.815
0.044,3.151,3.404,3.404,232.369,205.888,199.876
0.046,3.226,3.447,3.447,232.401,205.864,199.939
0.047,3.305,3.484,3.484,232.440,205.841,200.004
0.049,3.390,3.516,3.516,232.489,205.821,200.070
0.050,3.481,3.538,3.538,232.549,205.804,200.137
0.052,3.579,3.551,3.551,232.620,205.791,200.203
0.053,3.686,3.555,3.555,232.705,205.782,200.268
0.055,3.805,3.554,3.554,232.804,205.778,200.332
0.056,3.934,3.552,3.552,232.919,205.779,200.393
0.058,4.074,3.552,3.552,233.045,205.784,200.452
0.060,4.221,3.557,3.557,233.181,205.793,200.508
0.061,4.373,3.569,3.569,233.322,205.804,200.561
0.063,4.526,3.592,3.592,233.467,205.818,200.610
0.064,4.679,3.621,3.621,233.612,205.833,200.657
0.066,4.827,3.654,3.654,233.753,205.849,200.699
0.067,4.969,3.689,3.689,233.889,205.864,200.738
0.069,5.101,3.722,3.722,234.015,205.879,200.772
0.070,5.220,3.751,3.751,234.129,205.892,200.802
0.072,5.323,3.774,3.774,234.229,205.903,200.828
0.073,5.407,3.789,3.789,234.310,205.910,200.848
0.075,5.471,3.800,3.800,234.371,205.915,200.864
0.076,5.516,3.806,3.806,234.416,205.916,200.875
0.078,5.546,3.809,3.809,234.444,205.915,200.882
0.079,5.562,3.810,3.810,234.459,205.913,200.886
0.081,5.566,3.811,3.811,234.462,205.910,200.887
0.082,5.575,3.813,3.813,234.455,205.905,200.886
0.084,5.591,3.814,3.814,234.440,205.901,200.882
0.085,5.613,3.816,3.816,234.418,205.898,200.877
0.087,5.640,3.817,3.817,234.392,205.895,200.871
0.089,5.669,3.817,3.817,234.364,205.894,200.864
0.090,5.700,3.815,3.815,234.335,205.896,200.857
0.092,5.729,3.811,3.811,234.307,205.900,200.850
0.093,5.756,3.805,3.805,234.281,205.906,200.844
0.095,5.779,3.798,3.798,234.260,205.914,200.839
0.096,5.798,3.791,3.791,234.243,205.923,200.835
0.098,5.811,3.784,3.784,234.233,205.931,200.833
0.099,5.818,3.779,3.779,234.231,205.937,200.832
0.101,5.825,3.776,3.776,234.237,205.941,200.833
0.102,5.841,3.777,3.777,234.253,205.941,200.836
0.104,5.870,3.781,3.781,234.281,205.936,200.841
0.105,5.911,3.791,3.791,234.320,205.925,200.848
0.107,5.968,3.806,3.806,234.373,205.908,200.858
0.108,6.041,3.827,3.827,234.441,205.882,200.871
0.110,6.133,3.855,3.855,234.524,205.848,200.887
0.111,6.242,3.892,3.892,234.623,205.805,200.905
0.113,6.365,3.936,3.936,234.733,205.755,200.926
0.115,6.498,3.986,3.986,234.852,205.699,200.948
0.116,6.639,4.037,4.037,234.978,205.640,200.971
0.118,6.784,4.088,4.088,235.107,205.578,200.995
0.119,6.929,4.136,4.136,235.236,205.516,201.017
0.121,7.072,4.177,4.177,235.363,205.454,201.039
0.122,7.209,4.209,4.209,235.485,205.395,201.059
0.124,7.337,4.231,4.231,235.598,205.339,201.077
0.125,7.451,4.246,4.246,235.701,205.289,201.092
0.127,7.550,4.256,4.256,235.789,205.247,201.103
0.128,7.630,4.260,4.260,235.861,205.212,201.110
0.130,7.691,4.263,4.263,235.916,205.187,201.113
0.131,7.735,4.265,4.265,235.957,205.169,201.112
0.133,7.765,4.267,4.267,235.984,205.158,201.108
0.134,7.783,4.270,4.270,236.000,205.153,201.102
0.136,7.794,4.273,4.273,236.007,205.154,201.094
0.137,7.804,4.277,4.277,236.006,205.158,201.085
0.139,7.818,4.282,4.282,236.000,205.165,201.074
0.140,7.836,4.286,4.286,235.990,205.175,201.064
0.142,7.856,4.290,4.290,235.977,205.187,201.054
0.144,7.875,4.294,4.294,235.964,205.199,201.045
0.145,7.893,4.298,4.298,235.953,205.210,201.038
0.147,7.907,4.301,4.301,235.945,205.221,201.032
0.148,7.918,4.303,4.303,235.941,205.230,201.029
0.150,7.926,4.304,4.304,235.942,205.238,201.027
0.151,7.935,4.305,4.305,235.947,205.245,201.028
0.153,7.948,4.304,4.304,235.958,205.252,201.031
0.154,7.965,4.302,4.302,235.973,205.259,201.035
0.156,7.989,4.298,4.298,235.995,205.265,201.041
0.157,8.018,4.294,4.294,236.023,205.272,201.049
0.159,8.054,4.289,4.289,236.057,205.280,201.058
0.160,8.097,4.284,4.284,236.097,205.289,201.069
0.162,8.147,4.278,4.278,236.145,205.298,201.081
0.163,8.205,4.272,4.272,236.200,205.310,201.094
0.165,8.270,4.265,4.265,236.262,205.323,201.108
0.166,8.342,4.259,4.259,236.331,205.337,201.124
0.168,8.418,4.254,4.254,236.404,205.353,201.140
0.169,8.497,4.249,4.249,236.479,205.369,201.156
0.171,8.577,4.245,4.245,236.555,205.386,201.173
0.173,8.655,4.243,4.243,236.630,205.403,201.190
0.174,8.730,4.243,4.243,236.701,205.420,201.207
0.176,8.801,4.243,4.243,236.768,205.436,201.223
0.177,8.864,4.244,4.244,236.827,205.451,201.238
0.179,8.919,4.244,4.244,236.878,205.465,201.252
0.180,8.963,4.245,4.245,236.919,205.478,201.265
0.182,8.995,4.244,4.244,236.947,205.488,201.277
0.183,9.015,4.242,4.242,236.961,205.496,201.287
0.185,9.025,4.239,4.239,236.964,205.503,201.295
0.186,9.035,4.236,4.236,236.957,205.507,201.301
0.188,9.049,4.233,4.233,236.944,205.509,201.306
0.189,9.066,4.231,4.231,236.928,205.510,201.308
0.191,9.083,4.230,4.230,236.911,205.510,201.309
0.192,9.098,4.231,4.231,236.896,205.508,201.309
0.194,9.108,4.234,4.234,236.886,205.505,201.306
0.195,9.114,4.237,4.237,236.884,205.502,201.302
0.197,9.125,4.239,4.239,236.893,205.498,201.296
0.198,9.149,4.240,4.240,236.915,205.493,201.288
0.200,9.189,4.238,4.238,236.953,205.489,201.279
0.202,9.247,4.231,4.231,237.010,205.484,201.268
0.203,9.322,4.218,4.218,237.084,205.478,201.256
0.205,9.413,4.200,4.200,237.174,205.472,201.244
0.206,9.518,4.177,4.177,237.278,205.465,201.234
0.208,9.634,4.150,4.150,237.394,205.455,201.226
0.209,9.762,4.120,4.120,237.521,205.444,201.220
0.211,9.898,4.088,4.088,237.656,205.430,201.219
0.212,10.041,4.055,4.055,237.799,205.413,201.223
0.214,10.191,4.022,4.022,237.947,205.392,201.233
0.215,10.346,3.988,3.988,238.098,205.367,201.250
0.217,10.504,3.955,3.955,238.252,205.338,201.275
0.218,10.665,3.922,3.922,238.406,205.305,201.309
0.220,10.828,3.891,3.891,238.558,205.266,201.352
0.221,10.995,3.863,3.863,238.710,205.223,201.403
0.223,11.164,3.836,3.836,238.862,205.176,201.461
0.224,11.336,3.813,3.813,239.014,205.126,201.524
0.226,11.510,3.793,3.793,239.167,205.074,201.590
0.227,11.687,3.777,3.777,239.321,205.019,201.659
0.229,11.866,3.767,3.767,239.477,204.964,201.727
0.231,12.047,3.763,3.763,239.635,204.908,201.795
0.232,12.228,3.766,3.766,239.795,204.853,201.859
0.234,12.411,3.775,3.775,239.959,204.799,201.920
0.235,12.595,3.793,3.793,240.126,204.746,201.974
0.237,12.780,3.818,3.818,240.298,204.695,202.021
0.238,12.966,3.851,3.851,240.474,204.647,202.060
0.240,13.154,3.891,3.891,240.653,204.601,202.092
0.241,13.343,3.939,3.939,240.835,204.556,202.119
0.243,13.533,3.994,3.994,241.018,204.512,202.142
0.244,13.723,4.057,4.057,241.201,204.467,202.164
0.246,13.913,4.126,4.126,241.384,204.422,202.185
0.247,14.101,4.199,4.199,241.565,204.375,202.208
0.249,14.288,4.275,4.275,241.744,204.325,202.234
0.250,14.474,4.353,4.353,241.919,204.272,202.264
0.252,14.657,4.430,4.430,242.089,204.216,202.301
0.253,14.838,4.506,4.506,242.254,204.155,202.345
0.255,15.018,4.580,4.580,242.412,204.088,202.399
0.256,15.197,4.652,4.652,242.563,204.016,202.463
0.258,15.374,4.721,4.721,242.706,203.941,202.536
0.260,15.548,4.788,4.788,242.840,203.862,202.614
0.261,15.718,4.853,4.853,242.966,203.783,202.696
0.263,15.883,4.915,4.915,243.083,203.703,202.781
0.264,16.040,4.974,4.974,243.190,203.625,202.866
0.266,16.188,5.030,5.030,243.287,203.551,202.949
0.267,16.325,5.081,5.081,243.374,203.480,203.028
0.269,16.449,5.128,5.128,243.450,203.416,203.101
0.270,16.557,5.168,5.168,243.515,203.359,203.166
0.272,16.648,5.202,5.202,243.569,203.310,203.222
0.273,16.720,5.228,5.228,243.610,203.272,203.265
0.275,16.771,5.247,5.247,243.640,203.244,203.296
0.276,16.805,5.258,5.258,243.659,203.225,203.317
0.278,16.823,5.265,5.265,243.670,203.214,203.327
0.279,16.830,5.267,5.267,243.674,203.210,203.331
0.281,16.833,5.265,5.265,243.672,203.212,203.328
0.282,16.844,5.262,5.262,243.666,203.217,203.321
0.284,16.859,5.257,5.257,243.658,203.225,203.311
0.285,16.876,5.253,5.253,243.649,203.235,203.300
0.287,16.893,5.248,5.248,243.641,203.245,203.290
0.289,16.907,5.244,5.244,243.635,203.255,203.282
0.290,16.915,5.242,5.242,243.633,203.261,203.278
0.292,16.919,5.242,5.242,243.636,203.265,203.279
0.293,16.931,5.245,5.245,243.644,203.264,203.286
0.295,16.951,5.251,5.251,243.659,203.259,203.299
0.296,16.978,5.260,5.260,243.677,203.250,203.317
0.298,17.013,5.271,5.271,243.700,203.238,203.339
0.299,17.053,5.286,5.286,243.727,203.222,203.366
0.301,17.099,5.303,5.303,243.757,203.203,203.395
0.302,17.150,5.322,5.322,243.789,203.180,203.427
0.304,17.204,5.343,5.343,243.822,203.155,203.461
0.305,17.261,5.366,5.366,243.858,203.127,203.497
0.307,17.321,5.390,5.390,243.893,203.097,203.534
0.308,17.382,5.414,5.414,243.929,203.064,203.571
0.310,17.444,5.439,5.439,243.965,203.030,203.608
0.311,17.506,5.463,5.463,243.999,202.993,203.644
0.313,17.567,5.486,5.486,244.032,202.956,203.679
0.315,17.626,5.507,5.507,244.064,202.918,203.713
0.316,17.684,5.526,5.526,244.095,202.881,203.744
0.318,17.738,5.542,5.542,244.124,202.845,203.773
0.319,17.789,5.556,5.556,244.150,202.811,203.800
0.321,17.835,5.568,5.568,244.175,202.780,203.823
0.322,17.876,5.577,5.577,244.197,202.752,203.843
0.324,17.910,5.582,5.582,244.216,202.728,203.858
0.325,17.937,5.585,5.585,244.233,202.709,203.869
0.327,17.957,5.585,5.585,244.246,202.696,203.875
0.328,17.970,5.583,5.583,244.256,202.688,203.876
0.330,17.978,5.580,5.580,244.263,202.687,203.873
0.331,17.986,5.576,5.576,244.267,202.690,203.866
0.333,17.997,5.572,5.572,244.269,202.695,203.857
0.334,18.008,5.568,5.568,244.269,202.702,203.848
0.336,18.020,5.565,5.566,244.268,202.710,203.839
0.337,18.028,5.564,5.564,244.266,202.716,203.833
0.339,18.033,5.564,5.564,244.264,202.720,203.831
0.340,18.037,5.566,5.566,244.262,202.720,203.833
0.342,18.047,5.569,5.569,244.260,202.714,203.842
0.344,18.067,5.575,5.575,244.260,202.702,203.858
0.345,18.100,5.583,5.583,244.261,202.682,203.884
0.347,18.146,5.593,5.593,244.265,202.652,203.919
0.348,18.205,5.604,5.604,244.270,202.615,203.964
0.350,18.274,5.616,5.616,244.277,202.570,204.016
0.351,18.350,5.627,5.627,244.286,202.521,204.074
0.353,18.431,5.638,5.638,244.296,202.468,204.135
0.354,18.514,5.647,5.647,244.307,202.415,204.197
0.356,18.597,5.654,5.654,244.320,202.361,204.258
0.357,18.675,5.660,5.660,244.332,202.310,204.317
0.359,18.748,5.665,5.666,244.345,202.263,204.371
0.360,18.813,5.671,5.671,244.359,202.221,204.418
0.362,18.865,5.676,5.677,244.372,202.187,204.457
0.363,18.905,5.683,5.683,244.385,202.163,204.484
0.365,18.929,5.691,5.690,244.397,202.149,204.500
0.366,18.942,5.700,5.699,244.409,202.144,204.504
0.368,18.955,5.710,5.708,244.421,202.147,204.501
0.369,18.970,5.720,5.719,244.432,202.155,204.494
0.371,18.988,5.731,5.729,244.443,202.165,204.485
0.373,19.005,5.741,5.740,244.454,202.176,204.478
0.374,19.019,5.751,5.751,244.465,202.184,204.475
0.376,19.032,5.759,5.762,244.476,202.189,204.480
0.377,19.051,5.766,5.771,244.487,202.186,204.496
0.379,19.085,5.772,5.780,244.498,202.175,204.526
0.380,19.138,5.776,5.787,244.510,202.153,204.573
0.382,19.214,5.779,5.791,244.522,202.117,204.639
0.383,19.317,5.779,5.792,244.534,202.066,204.728
0.385,19.443,5.777,5.790,244.547,202.002,204.836
0.386,19.588,5.774,5.786,244.559,201.927,204.958
0.388,19.744,5.769,5.779,244.570,201.844,205.090
0.389,19.908,5.765,5.772,244.580,201.756,205.228
0.391,20.073,5.761,5.766,244.589,201.666,205.367
0.392,20.236,5.760,5.762,244.595,201.576,205.501
0.394,20.389,5.761,5.761,244.598,201.490,205.628
0.395,20.528,5.765,5.764,244.598,201.409,205.741
0.397,20.648,5.773,5.771,244.594,201.338,205.837
0.398,20.743,5.782,5.781,244.587,201.278,205.911
0.400,20.810,5.793,5.792,244.575,201.232,205.958
0.402,20.848,5.804,5.804,244.558,201.203,205.976
0.403,20.873,5.815,5.815,244.538,201.189,205.969
0.405,20.906,5.824,5.824,244.517,201.186,205.944
0.406,20.949,5.832,5.832,244.496,201.192,205.908
0.408,20.996,5.836,5.836,244.478,201.204,205.866
0.409,21.042,5.837,5.836,244.464,201.220,205.825
0.411,21.079,5.833,5.832,244.457,201.236,205.793
0.412,21.101,5.823,5.822,244.458,201.250,205.775
0.414,21.116,5.807,5.807,244.469,201.259,205.778
0.415,21.154,5.784,5.785,244.492,201.260,205.808
0.417,21.229,5.756,5.758,244.529,201.251,205.872
0.418,21.349,5.725,5.729,244.581,201.228,205.978
0.420,21.517,5.694,5.699,244.650,201.191,206.127
0.421,21.729,5.666,5.671,244.733,201.140,206.315
0.423,21.975,5.644,5.647,244.826,201.079,206.534
0.424,22.247,5.631,5.630,244.925,201.011,206.778
0.426,22.537,5.627,5.621,245.028,200.936,207.039
0.427,22.837,5.631,5.619,245.129,200.859,207.310
0.429,23.137,5.638,5.622,245.227,200.782,207.584
0.431,23.431,5.646,5.627,245.317,200.706,207.853
0.432,23.710,5.649,5.633,245.396,200.636,208.111
0.434,23.966,5.646,5.639,245.460,200.573,208.350
0.435,24.190,5.632,5.641,245.507,200.519,208.564
0.437,24.376,5.608,5.641,245.531,200.478,208.744
0.438,24.522,5.579,5.638,245.533,200.451,208.886
0.440,24.632,5.549,5.636,245.518,200.435,208.994
0.441,24.712,5.524,5.634,245.495,200.427,209.071
0.443,24.768,5.508,5.636,245.469,200.425,209.120
0.444,24.800,5.505,5.641,245.449,200.427,209.145
0.446,24.810,5.520,5.651,245.440,200.428,209.149
0.447,24.826,5.546,5.661,245.451,200.427,209.137
0.449,24.873,5.572,5.664,245.489,200.421,209.110
0.450,24.953,5.589,5.655,245.560,200.408,209.074
0.452,25.075,5.588,5.627,245.672,200.384,209.032
0.453,25.245,5.559,5.573,245.831,200.346,208.987
0.455,25.471,5.492,5.488,246.046,200.293,208.942
0.456,25.753,5.385,5.370,246.316,200.223,208.900
0.458,26.084,5.248,5.229,246.633,200.138,208.862
0.460,26.452,5.094,5.077,246.987,200.043,208.826
0.461,26.847,4.936,4.923,247.366,199.938,208.792
0.463,27.258,4.786,4.779,247.761,199.828,208.761
0.464,27.674,4.657,4.655,248.161,199.716,208.733
0.466,28.085,4.559,4.562,248.555,199.603,208.706
0.467,28.480,4.494,4.500,248.933,199.493,208.680
0.469,28.847,4.457,4.464,249.285,199.390,208.656
0.470,29.177,4.442,4.448,249.600,199.295,208.633
0.472,29.458,4.444,4.448,249.868,199.211,208.611
0.473,29.680,4.456,4.458,250.078,199.142,208.590
0.475,29.841,4.473,4.472,250.228,199.088,208.570
0.476,29.948,4.490,4.487,250.325,199.047,208.552
0.478,30.012,4.505,4.499,250.380,199.016,208.538
0.479,30.045,4.516,4.509,250.400,198.993,208.528
0.481,30.065,4.522,4.514,250.396,198.974,208.525
0.482,30.092,4.521,4.514,250.375,198.957,208.530
0.484,30.127,4.511,4.508,250.348,198.939,208.543
0.485,30.167,4.491,4.494,250.322,198.918,208.566
0.487,30.213,4.461,4.472,250.308,198.891,208.600
0.489,30.272,4.423,4.445,250.314,198.856,208.647
0.490,30.357,4.381,4.413,250.349,198.809,208.708
0.492,30.479,4.337,4.377,250.423,198.748,208.784
0.493,30.641,4.293,4.340,250.536,198.674,208.875
0.495,30.840,4.253,4.303,250.682,198.587,208.977
0.496,31.066,4.219,4.267,250.854,198.492,209.088
0.498,31.312,4.190,4.233,251.046,198.391,209.205
0.499,31.571,4.166,4.202,251.251,198.286,209.324
0.501,31.835,4.146,4.176,251.461,198.180,209.443
0.502,32.095,4.130,4.155,251.669,198.075,209.560
0.504,32.345,4.115,4.140,251.870,197.976,209.670
0.505,32.576,4.102,4.132,252.056,197.883,209.771
0.507,32.780,4.090,4.132,252.219,197.800,209.860
0.508,32.949,4.079,4.137,252.354,197.729,209.934
0.510,33.077,4.070,4.146,252.454,197.673,209.991
0.511,33.162,4.063,4.157,252.517,197.633,210.030
0.513,33.211,4.059,4.169,252.551,197.606,210.053
0.515,33.231,4.059,4.178,252.560,197.591,210.063
0.516,33.243,4.063,4.184,252.549,197.586,210.063
0.518,33.269,4.071,4.186,252.525,197.589,210.054
0.519,33.306,4.081,4.185,252.492,197.600,210.040
0.521,33.348,4.092,4.181,252.457,197.615,210.022
0.522,33.391,4.103,4.175,252.424,197.634,210.003
0.524,33.427,4.114,4.168,252.400,197.655,209.985
0.525,33.454,4.122,4.161,252.389,197.675,209.971
0.527,33.476,4.127,4.153,252.398,197.694,209.964
0.528,33.513,4.129,4.145,252.431,197.710,209.964
0.530,33.572,4.127,4.136,252.488,197.721,209.974
0.531,33.652,4.121,4.126,252.566,197.729,209.991
0.533,33.749,4.112,4.113,252.660,197.735,210.016
0.534,33.861,4.099,4.099,252.768,197.737,210.046
0.536,33.983,4.082,4.082,252.884,197.737,210.083
0.537,34.110,4.061,4.062,253.005,197.735,210.123
0.539,34.241,4.038,4.039,253.127,197.731,210.167
0.540,34.370,4.013,4.014,253.247,197.726,210.214
0.542,34.493,3.986,3.988,253.361,197.719,210.263
0.544,34.608,3.959,3.960,253.464,197.712,210.313
0.545,34.710,3.932,3.933,253.553,197.705,210.363
0.547,34.798,3.906,3.905,253.625,197.698,210.412
0.548,34.873,3.881,3.877,253.681,197.690,210.462
0.550,34.944,3.856,3.850,253.727,197.680,210.514
0.551,35.015,3.831,3.823,253.767,197.666,210.571
0.553,35.092,3.805,3.798,253.806,197.646,210.635
0.554,35.180,3.779,3.775,253.850,197.621,210.707
0.556,35.284,3.752,3.753,253.902,197.588,210.790
0.557,35.408,3.724,3.733,253.969,197.545,210.886
0.559,35.557,3.698,3.718,254.054,197.492,210.997
0.560,35.738,3.678,3.709,254.163,197.427,211.124
0.562,35.953,3.667,3.709,254.301,197.348,211.271
0.563,36.211,3.668,3.718,254.472,197.255,211.438
0.565,36.513,3.685,3.741,254.681,197.145,211.628
0.566,36.857,3.721,3.777,254.925,197.022,211.837
0.568,37.233,3.777,3.828,255.197,196.887,212.059
0.569,37.634,3.848,3.890,255.493,196.744,212.289
0.571,38.052,3.931,3.962,255.806,196.596,212.522
0.573,38.477,4.022,4.042,256.130,196.445,212.752
0.574,38.903,4.117,4.126,256.460,196.293,212.974
0.576,39.320,4.213,4.214,256.790,196.145,213.183
0.577,39.721,4.306,4.302,257.114,196.003,213.372
0.579,40.099,4.396,4.389,257.426,195.869,213.537
0.580,40.446,4.483,4.476,257.721,195.747,213.671
0.582,40.754,4.567,4.561,257.993,195.639,213.771
0.583,41.021,4.648,4.644,258.237,195.548,213.830
0.585,41.253,4.725,4.724,258.454,195.471,213.853
0.586,41.458,4.800,4.801,258.648,195.407,213.843
0.588,41.645,4.873,4.874,258.823,195.353,213.805
0.589,41.821,4.941,4.943,258.981,195.305,213.743
0.591,41.993,5.005,5.007,259.126,195.261,213.662
0.592,42.164,5.065,5.066,259.262,195.218,213.567
0.594,42.336,5.119,5.119,259.391,195.174,213.462
0.595,42.511,5.167,5.167,259.517,195.126,213.352
0.597,42.688,5.208,5.208,259.644,195.071,213.241
0.598,42.869,5.245,5.245,259.774,195.006,213.133
0.600,43.055,5.280,5.280,259.912,194.929,213.035
0.602,43.249,5.317,5.318,260.059,194.837,212.948
0.603,43.450,5.359,5.360,260.214,194.733,212.873
0.605,43.656,5.410,5.411,260.374,194.620,212.809
0.606,43.864,5.474,5.474,260.536,194.500,212.755
0.608,44.073,5.551,5.549,260.697,194.376,212.710
0.609,44.278,5.638,5.635,260.855,194.251,212.673
0.611,44.476,5.732,5.727,261.008,194.128,212.643
0.612,44.664,5.826,5.820,261.151,194.009,212.620
0.614,44.837,5.916,5.911,261.284,193.898,212.602
0.615,44.993,5.997,5.994,261.402,193.797,212.587
0.617,45.128,6.064,6.067,261.503,193.710,212.577
0.618,45.237,6.117,6.125,261.584,193.638,212.568
0.620,45.318,6.155,6.172,261.644,193.584,212.561
0.621,45.374,6.181,6.206,261.686,193.546,212.555
0.623,45.409,6.198,6.230,261.710,193.522,212.551
0.624,45.426,6.206,6.244,261.721,193.509,212.547
