"T","Distance","Radius","FreeRadius","X","Y","Z"
0.000,0.000,2.397,2.397,204.439,211.659,209.460
0.001,0.477,2.490,2.490,204.257,211.823,209.052
0.003,0.949,2.583,2.583,204.077,211.985,208.646
0.004,1.413,2.675,2.675,203.900,212.146,208.249
0.006,1.864,2.766,2.766,203.730,212.304,207.862
0.007,2.299,2.856,2.856,203.568,212.459,207.489
0.009,2.713,2.943,2.943,203.415,212.608,207.135
0.010,3.102,3.029,3.029,203.275,212.752,206.802
0.012,3.461,3.112,3.112,203.148,212.889,206.494
0.013,3.788,3.192,3.192,203.038,213.019,206.216
0.014,4.077,3.267,3.267,202.946,213.140,205.969
0.016,4.326,3.337,3.337,202.874,213.252,205.759
0.017,4.530,3.401,3.401,202.823,213.353,205.589
0.019,4.692,3.458,3.458,202.795,213.444,205.459
0.020,4.817,3.508,3.508,202.786,213.524,205.364
0.022,4.913,3.548,3.548,202.793,213.596,205.300
0.023,4.990,3.581,3.581,202.814,213.660,205.263
0.024,5.057,3.608,3.608,202.846,213.717,205.248
0.026,5.121,3.628,3.628,202.886,213.767,205.252
0.027,5.187,3.644,3.644,202.931,213.811,205.269
0.029,5.254,3.655,3.655,202.979,213.851,205.295
0.030,5.321,3.664,3.664,203.027,213.887,205.326
0.032,5.385,3.671,3.671,203.072,213.919,205.358
0.033,5.442,3.676,3.676,203.111,213.950,205.385
0.035,5.488,3.681,3.681,203.142,213.978,205.405
0.036,5.526,3.686,3.686,203.165,214.005,205.416
0.037,5.556,3.691,3.691,203.180,214.031,205.420
0.039,5.581,3.697,3.697,203.190,214.054,205.418
0.040,5.604,3.705,3.705,203.194,214.076,205.412
0.042,5.626,3.715,3.715,203.193,214.095,205.401
0.043,5.648,3.727,3.727,203.190,214.112,205.388
0.045,5.669,3.740,3.740,203.184,214.126,205.372
0.046,5.690,3.753,3.753,203.176,214.137,205.357
0.047,5.709,3.765,3.765,203.168,214.145,205.341
0.049,5.725,3.776,3.776,203.161,214.149,205.327
0.050,5.738,3.784,3.784,203.155,214.150,205.316
0.052,5.747,3.790,3.790,203.151,214.148,205.308
0.053,5.754,3.793,3.793,203.149,214.145,205.303
0.055,5.758,3.794,3.794,203.149,214.142,205.300
0.056,5.761,3.794,3.794,203.152,214.143,205.298
0.058,5.768,3.792,3.792,203.157,214.148,205.297
0.059,5.782,3.789,3.789,203.165,214.160,205.297
0.060,5.805,3.786,3.786,203.175,214.180,205.296
0.062,5.839,3.783,3.783,203.187,214.212,205.295
0.063,5.885,3.781,3.781,203.202,214.256,205.292
0.065,5.947,3.780,3.780,203.219,214.314,205.287
0.066,6.025,3.781,3.781,203.238,214.390,205.280
0.068,6.122,3.784,3.784,203.261,214.484,205.270
0.069,6.237,3.791,3.791,203.285,214.595,205.256
0.071,6.366,3.801,3.801,203.308,214.721,205.240
0.072,6.506,3.815,3.815,203.331,214.858,205.222
0.073,6.655,3.832,3.832,203.351,215.005,205.203
0.075,6.809,3.853,3.853,203.366,215.157,205.183
0.076,6.966,3.875,3.875,203.375,215.312,205.162
0.078,7.123,3.897,3.897,203.377,215.468,205.142
0.079,7.277,3.920,3.920,203.370,215.621,205.122
0.081,7.427,3.942,3.942,203.353,215.768,205.104
0.082,7.569,3.962,3.962,203.324,215.906,205.087
0.083,7.704,3.980,3.980,203.281,216.034,205.073
0.085,7.832,3.998,3.998,203.225,216.148,205.061
0.086,7.955,4.015,4.015,203.156,216.250,205.052
0.088,8.075,4.033,4.033,203.078,216.340,205.045
0.089,8.193,4.052,4.052,202.992,216.420,205.041
0.091,8.309,4.073,4.073,202.900,216.492,205.039
0.092,8.423,4.096,4.096,202.806,216.556,205.038
0.094,8.534,4.122,4.122,202.712,216.614,205.039
0.095,8.641,4.147,4.147,202.619,216.668,205.042
0.096,8.743,4.173,4.173,202.530,216.718,205.046
0.098,8.838,4.197,4.197,202.448,216.765,205.050
0.099,8.925,4.218,4.218,202.375,216.812,205.056
0.101,9.003,4.236,4.236,202.313,216.859,205.063
0.102,9.073,4.249,4.249,202.262,216.907,205.069
0.104,9.135,4.258,4.258,202.222,216.954,205.077
0.105,9.190,4.263,4.263,202.192,216.998,205.084
0.106,9.238,4.266,4.266,202.169,217.040,205.092
0.108,9.280,4.267,4.267,202.153,217.078,205.100
0.109,9.314,4.268,4.268,202.143,217.110,205.107
0.111,9.342,4.269,4.269,202.137,217.136,205.114
0.112,9.361,4.271,4.271,202.134,217.154,205.121
0.114,9.372,4.274,4.274,202.133,217.163,205.128
0.115,9.378,4.278,4.278,202.132,217.162,205.133
0.117,9.391,4.284,4.284,202.131,217.149,205.138
0.118,9.416,4.291,4.291,202.128,217.125,205.142
0.119,9.448,4.299,4.299,202.124,217.093,205.145
0.121,9.483,4.309,4.309,202.118,217.059,205.148
0.122,9.517,4.320,4.320,202.110,217.026,205.151
0.124,9.544,4.331,4.331,202.101,217.001,205.155
0.125,9.561,4.341,4.341,202.090,216.988,205.160
0.127,9.576,4.347,4.347,202.078,216.992,205.166
0.128,9.606,4.349,4.349,202.065,217.019,205.174
0.129,9.663,4.344,4.344,202.051,217.074,205.184
0.131,9.752,4.332,4.332,202.036,217.160,205.197
0.132,9.879,4.309,4.309,202.021,217.285,205.212
0.134,10.047,4.279,4.279,202.005,217.452,205.231
0.135,10.259,4.245,4.245,201.988,217.662,205.253
0.137,10.507,4.211,4.211,201.970,217.908,205.276
0.138,10.786,4.179,4.179,201.951,218.185,205.300
0.140,11.086,4.153,4.153,201.930,218.484,205.322
0.141,11.403,4.137,4.137,201.908,218.799,205.342
0.142,11.728,4.134,4.134,201.883,219.123,205.357
0.144,12.056,4.143,4.143,201.856,219.449,205.367
0.145,12.378,4.161,4.161,201.826,219.770,205.370
0.147,12.689,4.186,4.186,201.793,220.079,205.363
0.148,12.982,4.213,4.213,201.756,220.370,205.347
0.150,13.251,4.241,4.241,201.716,220.634,205.320
0.151,13.491,4.266,4.266,201.672,220.866,205.279
0.153,13.704,4.285,4.285,201.624,221.067,205.227
0.154,13.895,4.299,4.299,201.572,221.240,205.164
0.155,14.070,4.310,4.310,201.516,221.390,205.093
0.157,14.232,4.320,4.320,201.456,221.519,205.015
0.158,14.386,4.331,4.331,201.392,221.632,204.933
0.160,14.535,4.344,4.344,201.325,221.733,204.847
0.161,14.681,4.361,4.361,201.253,221.826,204.760
0.163,14.825,4.386,4.386,201.179,221.914,204.673
0.164,14.970,4.416,4.416,201.100,222.002,204.589
0.165,15.116,4.452,4.452,201.018,222.093,204.508
0.167,15.266,4.492,4.492,200.933,222.191,204.434
0.168,15.422,4.534,4.534,200.844,222.299,204.366
0.170,15.582,4.578,4.578,200.753,222.415,204.304
0.171,15.748,4.623,4.623,200.659,222.540,204.249
0.173,15.918,4.666,4.666,200.563,222.672,204.198
0.174,16.093,4.708,4.708,200.466,222.809,204.151
0.176,16.270,4.751,4.751,200.369,222.950,204.108
0.177,16.450,4.794,4.794,200.271,223.095,204.067
0.178,16.630,4.840,4.840,200.173,223.242,204.028
0.180,16.811,4.888,4.888,200.076,223.390,203.990
0.181,16.991,4.939,4.939,199.981,223.538,203.952
0.183,17.169,4.995,4.995,199.887,223.685,203.914
0.184,17.344,5.055,5.055,199.795,223.829,203.875
0.186,17.516,5.119,5.119,199.707,223.969,203.834
0.187,17.682,5.185,5.185,199.622,224.106,203.793
0.188,17.842,5.253,5.253,199.540,224.238,203.752
0.190,17.996,5.323,5.323,199.463,224.365,203.710
0.191,18.143,5.392,5.392,199.391,224.486,203.669
0.193,18.281,5.461,5.461,199.324,224.600,203.630
0.194,18.410,5.528,5.528,199.263,224.706,203.591
0.196,18.528,5.593,5.593,199.209,224.805,203.555
0.197,18.635,5.655,5.655,199.161,224.895,203.522
0.199,18.731,5.712,5.712,199.121,224.976,203.491
0.200,18.813,5.763,5.763,199.089,225.047,203.463
0.201,18.882,5.807,5.807,199.065,225.107,203.440
0.203,18.939,5.844,5.844,199.048,225.158,203.420
0.204,18.984,5.873,5.873,199.038,225.198,203.404
0.206,19.018,5.895,5.895,199.034,225.230,203.392
0.207,19.043,5.910,5.910,199.035,225.253,203.383
0.209,19.059,5.918,5.918,199.039,225.268,203.378
0.210,19.070,5.920,5.920,199.046,225.276,203.377
0.212,19.080,5.916,5.916,199.056,225.277,203.379
0.213,19.093,5.907,5.907,199.066,225.272,203.385
0.214,19.111,5.894,5.894,199.077,225.261,203.394
0.216,19.133,5.878,5.878,199.086,225.244,203.406
0.217,19.161,5.861,5.861,199.094,225.223,203.422
0.219,19.192,5.843,5.843,199.100,225.199,203.441
0.220,19.225,5.826,5.826,199.104,225.173,203.460
0.222,19.256,5.812,5.812,199.106,225.148,203.479
0.223,19.283,5.802,5.802,199.106,225.127,203.495
0.224,19.303,5.796,5.796,199.104,225.111,203.506
0.226,19.314,5.796,5.796,199.100,225.102,203.512
0.227,19.320,5.801,5.802,199.094,225.103,203.510
0.229,19.339,5.813,5.814,199.087,225.117,203.498
0.230,19.377,5.832,5.832,199.078,225.145,203.474
0.232,19.435,5.858,5.858,199.067,225.189,203.438
0.233,19.517,5.892,5.892,199.054,225.252,203.387
0.235,19.625,5.933,5.933,199.040,225.336,203.320
0.236,19.757,5.979,5.978,199.025,225.438,203.238
0.237,19.907,6.028,6.027,199.009,225.555,203.145
0.239,20.073,6.077,6.076,198.992,225.683,203.042
0.240,20.249,6.125,6.124,198.974,225.820,202.933
0.242,20.431,6.169,6.168,198.957,225.961,202.819
0.243,20.614,6.207,6.207,198.940,226.103,202.705
0.245,20.795,6.238,6.240,198.923,226.244,202.592
0.246,20.969,6.264,6.268,198.906,226.378,202.483
0.247,21.131,6.286,6.290,198.891,226.503,202.381
0.249,21.277,6.303,6.308,198.877,226.616,202.289
0.250,21.403,6.318,6.322,198.865,226.712,202.209
0.252,21.506,6.331,6.333,198.854,226.791,202.143
0.253,21.590,6.342,6.340,198.845,226.854,202.089
0.255,21.655,6.353,6.345,198.837,226.904,202.047
0.256,21.706,6.362,6.348,198.829,226.943,202.016
0.258,21.744,6.369,6.351,198.822,226.974,201.995
0.259,21.773,6.374,6.355,198.816,226.999,201.982
0.260,21.797,6.375,6.359,198.810,227.021,201.976
0.262,21.819,6.373,6.366,198.803,227.043,201.977
0.263,21.844,6.367,6.375,198.796,227.066,201.983
0.265,21.874,6.356,6.387,198.788,227.093,201.994
0.266,21.912,6.342,6.399,198.779,227.126,202.007
0.268,21.958,6.326,6.409,198.768,227.169,202.023
0.269,22.013,6.307,6.416,198.756,227.220,202.039
0.271,22.075,6.288,6.417,198.743,227.278,202.056
0.272,22.140,6.268,6.410,198.729,227.339,202.073
0.273,22.207,6.248,6.394,198.713,227.403,202.089
0.275,22.274,6.229,6.367,198.695,227.465,202.104
0.276,22.338,6.211,6.334,198.677,227.526,202.116
0.278,22.398,6.195,6.296,198.658,227.581,202.125
0.279,22.451,6.180,6.256,198.637,227.630,202.130
0.281,22.496,6.167,6.218,198.615,227.669,202.131
0.282,22.532,6.158,6.182,198.592,227.697,202.127
0.283,22.561,6.150,6.153,198.568,227.711,202.117
0.285,22.590,6.145,6.131,198.544,227.710,202.101
0.286,22.623,6.140,6.114,198.519,227.702,202.082
0.288,22.655,6.132,6.100,198.496,227.690,202.063
0.289,22.683,6.119,6.087,198.474,227.683,202.047
0.291,22.704,6.098,6.073,198.455,227.686,202.038
0.292,22.729,6.069,6.057,198.440,227.706,202.038
0.294,22.775,6.027,6.037,198.430,227.749,202.050
0.295,22.853,5.973,6.009,198.425,227.822,202.078
0.296,22.971,5.906,5.974,198.428,227.930,202.124
0.298,23.137,5.828,5.927,198.437,228.081,202.193
0.299,23.358,5.739,5.868,198.455,228.281,202.286
0.301,23.642,5.641,5.794,198.483,228.536,202.407
0.302,23.985,5.533,5.703,198.520,228.843,202.555
0.304,24.377,5.417,5.593,198.563,229.194,202.725
0.305,24.806,5.295,5.466,198.612,229.577,202.912
0.306,25.260,5.167,5.330,198.664,229.982,203.112
0.308,25.728,5.038,5.192,198.717,230.399,203.318
0.309,26.199,4.909,5.059,198.769,230.817,203.527
0.311,26.660,4.783,4.939,198.819,231.227,203.732
0.312,27.101,4.662,4.839,198.864,231.618,203.930
0.314,27.508,4.548,4.768,198.902,231.979,204.116
0.315,27.872,4.445,4.727,198.932,232.301,204.283
0.317,28.180,4.354,4.710,198.951,232.572,204.427
0.318,28.424,4.278,4.711,198.959,232.785,204.545
0.319,28.606,4.220,4.725,198.956,232.943,204.637
0.321,28.734,4.180,4.745,198.944,233.050,204.705
0.322,28.815,4.163,4.764,198.926,233.113,204.753
0.324,28.860,4.170,4.777,198.902,233.139,204.782
0.325,28.890,4.201,4.780,198.876,233.132,204.795
0.327,28.933,4.249,4.776,198.849,233.099,204.795
0.328,28.993,4.311,4.766,198.824,233.045,204.784
0.329,29.067,4.379,4.752,198.801,232.978,204.765
0.331,29.149,4.448,4.736,198.784,232.901,204.739
0.332,29.234,4.513,4.720,198.774,232.823,204.711
0.334,29.315,4.567,4.706,198.772,232.747,204.681
0.335,29.389,4.609,4.695,198.781,232.680,204.652
0.337,29.455,4.637,4.686,198.796,232.621,204.626
0.338,29.511,4.655,4.679,198.815,232.573,204.603
0.340,29.556,4.662,4.673,198.835,232.538,204.585
0.341,29.588,4.659,4.668,198.854,232.516,204.572
0.342,29.605,4.649,4.663,198.869,232.509,204.566
0.344,29.618,4.632,4.657,198.877,232.518,204.568
0.345,29.647,4.609,4.649,198.875,232.546,204.580
0.347,29.701,4.579,4.638,198.861,232.592,204.601
0.348,29.781,4.544,4.622,198.831,232.660,204.635
0.350,29.893,4.502,4.600,198.784,232.749,204.680
0.351,30.037,4.455,4.570,198.716,232.862,204.739
0.353,30.213,4.402,4.530,198.629,232.997,204.810
0.354,30.415,4.344,4.479,198.526,233.151,204.890
0.355,30.638,4.280,4.416,198.409,233.321,204.976
0.357,30.878,4.213,4.345,198.281,233.505,205.065
0.358,31.131,4.145,4.268,198.145,233.698,205.153
0.360,31.391,4.077,4.188,198.005,233.899,205.239
0.361,31.654,4.010,4.108,197.862,234.105,205.319
0.363,31.915,3.948,4.030,197.720,234.313,205.390
0.364,32.170,3.890,3.957,197.582,234.519,205.449
0.365,32.416,3.839,3.892,197.450,234.722,205.493
0.367,32.649,3.795,3.835,197.328,234.918,205.520
0.368,32.867,3.757,3.785,197.216,235.105,205.528
0.370,33.072,3.726,3.744,197.115,235.283,205.519
0.371,33.267,3.701,3.711,197.023,235.454,205.497
0.373,33.454,3.683,3.686,196.939,235.618,205.466
0.374,33.633,3.671,3.671,196.862,235.774,205.427
0.376,33.804,3.667,3.664,196.791,235.925,205.386
0.377,33.970,3.668,3.664,196.726,236.071,205.344
0.378,34.128,3.675,3.673,196.664,236.212,205.305
0.380,34.281,3.689,3.688,196.604,236.349,205.273
0.381,34.428,3.708,3.709,196.547,236.482,205.251
0.383,34.571,3.733,3.736,196.489,236.613,205.241
0.384,34.712,3.762,3.767,196.432,236.741,205.247
0.386,34.852,3.797,3.802,196.373,236.867,205.270
0.387,34.993,3.834,3.841,196.315,236.990,205.305
0.388,35.132,3.873,3.881,196.257,237.108,205.350
0.390,35.269,3.912,3.923,196.200,237.221,205.402
0.391,35.402,3.949,3.966,196.145,237.328,205.459
0.393,35.529,3.983,4.008,196.092,237.428,205.517
0.394,35.649,4.011,4.048,196.041,237.520,205.573
0.396,35.758,4.034,4.086,195.994,237.604,205.626
0.397,35.854,4.051,4.121,195.950,237.677,205.671
0.399,35.936,4.065,4.150,195.912,237.740,205.706
0.400,36.001,4.075,4.174,195.878,237.791,205.728
0.401,36.051,4.083,4.189,195.849,237.831,205.735
0.403,36.090,4.090,4.196,195.826,237.862,205.728
0.404,36.128,4.096,4.192,195.808,237.889,205.709
0.406,36.170,4.103,4.180,195.795,237.917,205.680
0.407,36.219,4.109,4.169,195.786,237.948,205.643
0.409,36.278,4.115,4.168,195.782,237.989,205.600
0.410,36.348,4.120,4.188,195.782,238.041,205.554
0.412,36.433,4.122,4.238,195.787,238.111,205.505
0.413,36.537,4.122,4.329,195.795,238.202,205.457
0.414,36.662,4.119,4.471,195.807,238.318,205.410
0.416,36.814,4.114,4.665,195.822,238.464,205.368
0.417,36.998,4.110,4.893,195.841,238.643,205.331
0.419,37.214,4.112,5.134,195.862,238.855,205.302
0.420,37.457,4.124,5.367,195.884,239.096,205.277
0.422,37.722,4.151,5.569,195.906,239.359,205.255
0.423,38.003,4.196,5.721,195.926,239.639,205.236
0.424,38.296,4.265,5.801,195.944,239.930,205.217
0.426,38.594,4.358,5.798,195.957,240.227,205.197
0.427,38.892,4.470,5.727,195.965,240.524,205.175
0.429,39.184,4.592,5.611,195.965,240.816,205.148
0.430,39.467,4.718,5.468,195.957,241.096,205.116
0.432,39.734,4.840,5.319,195.940,241.360,205.076
0.433,39.981,4.951,5.185,195.911,241.601,205.029
0.435,40.206,5.043,5.085,195.871,241.815,204.971
0.436,40.412,5.112,5.033,195.819,242.002,204.905
0.437,40.601,5.160,5.023,195.757,242.166,204.834
0.439,40.776,5.191,5.044,195.688,242.310,204.761
0.440,40.941,5.210,5.088,195.612,242.436,204.688
0.442,41.095,5.220,5.143,195.532,242.548,204.618
0.443,41.240,5.225,5.201,195.448,242.649,204.555
0.445,41.377,5.230,5.252,195.363,242.741,204.501
0.446,41.506,5.237,5.289,195.279,242.829,204.458
0.447,41.628,5.247,5.313,195.196,242.914,204.430
0.449,41.745,5.259,5.330,195.118,243.000,204.420
0.450,41.862,5.273,5.342,195.044,243.090,204.430
0.452,41.983,5.288,5.352,194.977,243.186,204.461
0.453,42.110,5.304,5.365,194.916,243.286,204.511
0.455,42.245,5.322,5.385,194.861,243.390,204.576
0.456,42.385,5.339,5.412,194.812,243.497,204.653
0.458,42.529,5.358,5.446,194.768,243.604,204.739
0.459,42.676,5.379,5.485,194.729,243.711,204.831
0.460,42.822,5.401,5.525,194.695,243.817,204.926
0.462,42.965,5.426,5.565,194.666,243.920,205.020
0.463,43.102,5.454,5.603,194.641,244.020,205.111
0.465,43.230,5.485,5.635,194.620,244.114,205.195
0.466,43.346,5.520,5.661,194.603,244.203,205.269
0.468,43.449,5.557,5.680,194.590,244.284,205.330
0.469,43.536,5.595,5.695,194.580,244.357,205.377
0.471,43.611,5.633,5.705,194.572,244.422,205.413
0.472,43.673,5.668,5.712,194.566,244.479,205.438
0.473,43.725,5.699,5.718,194.562,244.527,205.454
0.475,43.765,5.724,5.723,194.559,244.567,205.462
0.476,43.797,5.743,5.728,194.556,244.598,205.464
0.478,43.819,5.755,5.733,194.552,244.620,205.461
0.479,43.834,5.762,5.737,194.548,244.633,205.454
0.481,43.846,5.762,5.739,194.543,244.637,205.444
0.482,43.859,5.757,5.740,194.536,244.631,205.434
0.483,43.880,5.747,5.737,194.526,244.616,205.424
0.485,43.909,5.732,5.732,194.514,244.591,205.416
0.486,43.942,5.713,5.723,194.500,244.561,205.410
0.488,43.978,5.691,5.711,194.486,244.528,205.404
0.489,44.013,5.668,5.698,194.473,244.497,205.401
0.491,44.041,5.646,5.683,194.463,244.470,205.398
0.492,44.061,5.626,5.669,194.456,244.452,205.397
0.494,44.068,5.610,5.655,194.453,244.445,205.396
0.495,44.078,5.600,5.644,194.457,244.454,205.397
0.496,44.108,5.596,5.635,194.469,244.483,205.399
0.498,44.163,5.596,5.627,194.489,244.533,205.401
0.499,44.246,5.597,5.618,194.519,244.610,205.403
0.501,44.360,5.596,5.609,194.561,244.717,205.407
0.502,44.505,5.591,5.596,194.613,244.852,205.410
0.504,44.675,5.578,5.578,194.674,245.010,205.414
0.505,44.863,5.554,5.554,194.741,245.186,205.419
0.506,45.065,5.518,5.523,194.813,245.375,205.423
0.508,45.273,5.471,5.486,194.886,245.570,205.428
0.509,45.483,5.417,5.447,194.960,245.766,205.433
0.511,45.687,5.359,5.406,195.031,245.958,205.437
0.512,45.881,5.300,5.366,195.098,246.140,205.442
0.514,46.058,5.244,5.330,195.158,246.306,205.446
0.515,46.213,5.193,5.300,195.209,246.452,205.451
0.517,46.338,5.151,5.277,195.249,246.571,205.455
0.518,46.431,5.117,5.261,195.276,246.659,205.459
0.519,46.494,5.091,5.251,195.292,246.720,205.462
0.521,46.533,5.071,5.245,195.300,246.758,205.467
0.522,46.555,5.058,5.243,195.302,246.779,205.472
0.524,46.565,5.050,5.242,195.300,246.787,205.479
0.525,46.574,5.047,5.243,195.298,246.787,205.487
0.527,46.585,5.047,5.244,195.297,246.786,205.498
0.528,46.599,5.051,5.243,195.301,246.786,205.511
0.529,46.620,5.057,5.242,195.312,246.795,205.527
0.531,46.656,5.065,5.239,195.333,246.816,205.547
0.532,46.712,5.075,5.234,195.366,246.855,205.571
0.534,46.795,5.085,5.227,195.414,246.917,205.599
0.535,46.907,5.095,5.217,195.476,247.004,205.632
0.537,47.044,5.104,5.205,195.552,247.113,205.667
0.538,47.202,5.112,5.189,195.637,247.240,205.705
0.540,47.375,5.117,5.173,195.729,247.382,205.744
0.541,47.560,5.117,5.157,195.824,247.535,205.783
0.542,47.752,5.112,5.141,195.920,247.696,205.822
0.544,47.946,5.100,5.127,196.013,247.863,205.858
0.545,48.138,5.081,5.115,196.101,248.030,205.891
0.547,48.324,5.053,5.107,196.181,248.195,205.921
0.548,48.499,5.017,5.102,196.250,248.355,205.945
0.550,48.660,4.977,5.096,196.304,248.506,205.963
0.551,48.804,4.933,5.089,196.341,248.644,205.974
0.553,48.932,4.888,5.079,196.361,248.770,205.978
0.554,49.047,4.844,5.064,196.367,248.886,205.977
0.555,49.153,4.803,5.042,196.361,248.991,205.969
0.557,49.252,4.767,5.012,196.345,249.088,205.958
0.558,49.347,4.735,4.974,196.320,249.178,205.943
0.560,49.438,4.706,4.931,196.289,249.262,205.925
0.561,49.527,4.678,4.885,196.254,249.341,205.905
0.563,49.614,4.652,4.838,196.216,249.417,205.883
0.564,49.700,4.625,4.792,196.179,249.491,205.862
0.565,49.784,4.596,4.748,196.144,249.565,205.840
0.567,49.867,4.564,4.709,196.113,249.638,205.820
0.568,49.948,4.531,4.674,196.087,249.714,205.802
0.570,50.029,4.495,4.643,196.067,249.790,205.785
0.571,50.110,4.460,4.614,196.050,249.868,205.769
0.573,50.191,4.425,4.588,196.037,249.946,205.755
0.574,50.272,4.391,4.564,196.027,250.026,205.742
0.576,50.353,4.359,4.540,196.018,250.105,205.730
0.577,50.434,4.331,4.517,196.010,250.185,205.719
0.578,50.514,4.306,4.494,196.002,250.265,205.709
0.580,50.595,4.283,4.470,195.994,250.344,205.699
0.581,50.675,4.262,4.447,195.984,250.423,205.689
0.583,50.754,4.242,4.424,195.972,250.500,205.680
0.584,50.833,4.223,4.400,195.957,250.577,205.671
0.586,50.912,4.204,4.377,195.939,250.653,205.661
0.587,50.990,4.186,4.353,195.918,250.728,205.652
