"T","Distance","Radius","FreeRadius","X","Y","Z"
0.000,0.000,1.848,1.848,195.824,181.474,154.755
0.001,0.518,1.978,1.978,195.473,181.852,154.808
0.003,1.032,2.108,2.108,195.126,182.227,154.860
0.004,1.536,2.236,2.236,194.788,182.598,154.909
0.006,2.026,2.361,2.361,194.463,182.962,154.954
0.007,2.498,2.483,2.483,194.155,183.318,154.993
0.008,2.948,2.601,2.601,193.870,183.663,155.024
0.010,3.370,2.713,2.713,193.610,183.996,155.047
0.011,3.762,2.819,2.819,193.380,184.313,155.060
0.013,4.120,2.920,2.920,193.185,184.614,155.061
0.014,4.442,3.018,3.018,193.030,184.895,155.049
0.016,4.727,3.113,3.113,192.917,185.155,155.023
0.017,4.976,3.207,3.207,192.851,185.392,154.981
0.018,5.199,3.302,3.302,192.827,185.607,154.926
0.020,5.404,3.398,3.398,192.840,185.800,154.860
0.021,5.598,3.497,3.497,192.883,185.975,154.786
0.023,5.786,3.598,3.598,192.950,186.131,154.706
0.024,5.969,3.698,3.698,193.035,186.270,154.623
0.025,6.148,3.794,3.794,193.133,186.394,154.540
0.027,6.319,3.884,3.884,193.237,186.505,154.460
0.028,6.481,3.964,3.964,193.341,186.603,154.384
0.030,6.628,4.032,4.032,193.439,186.690,154.317
0.031,6.757,4.086,4.086,193.525,186.767,154.260
0.032,6.865,4.125,4.125,193.594,186.836,154.215
0.034,6.951,4.153,4.153,193.646,186.897,154.183
0.035,7.020,4.171,4.171,193.684,186.951,154.161
0.037,7.074,4.182,4.182,193.708,186.997,154.148
0.038,7.116,4.188,4.188,193.720,187.036,154.142
0.040,7.148,4.193,4.193,193.724,187.069,154.142
0.041,7.175,4.199,4.199,193.720,187.095,154.146
0.042,7.198,4.207,4.207,193.711,187.115,154.152
0.044,7.218,4.216,4.216,193.698,187.128,154.160
0.045,7.236,4.225,4.225,193.684,187.137,154.167
0.047,7.250,4.234,4.234,193.670,187.139,154.171
0.048,7.262,4.242,4.242,193.659,187.137,154.173
0.049,7.273,4.248,4.248,193.650,187.131,154.170
0.051,7.284,4.251,4.251,193.644,187.123,154.166
0.052,7.295,4.251,4.251,193.640,187.114,154.160
0.054,7.305,4.249,4.249,193.640,187.108,154.153
0.055,7.313,4.247,4.247,193.642,187.104,154.147
0.056,7.320,4.246,4.246,193.647,187.105,154.141
0.058,7.331,4.247,4.247,193.655,187.113,154.139
0.059,7.351,4.251,4.251,193.666,187.129,154.139
0.061,7.380,4.260,4.260,193.679,187.155,154.143
0.062,7.423,4.275,4.275,193.696,187.192,154.152
0.064,7.479,4.295,4.295,193.715,187.243,154.166
0.065,7.549,4.319,4.319,193.738,187.307,154.186
0.066,7.631,4.346,4.346,193.762,187.381,154.211
0.068,7.722,4.376,4.376,193.788,187.463,154.240
0.069,7.821,4.408,4.408,193.815,187.553,154.271
0.071,7.925,4.441,4.441,193.844,187.647,154.306
0.072,8.032,4.474,4.474,193.873,187.744,154.342
0.073,8.141,4.507,4.507,193.902,187.842,154.378
0.075,8.249,4.540,4.540,193.930,187.939,154.415
0.076,8.354,4.573,4.573,193.958,188.033,154.451
0.078,8.453,4.605,4.605,193.985,188.123,154.486
0.079,8.546,4.637,4.637,194.010,188.206,154.519
0.081,8.631,4.669,4.669,194.033,188.282,154.549
0.082,8.709,4.700,4.700,194.054,188.351,154.577
0.083,8.780,4.731,4.731,194.074,188.415,154.601
0.085,8.844,4.760,4.760,194.092,188.473,154.623
0.086,8.903,4.786,4.786,194.109,188.525,154.642
0.088,8.956,4.810,4.810,194.125,188.574,154.658
0.089,9.003,4.831,4.831,194.138,188.618,154.671
0.090,9.047,4.848,4.848,194.151,188.658,154.680
0.092,9.086,4.860,4.860,194.162,188.695,154.686
0.093,9.121,4.869,4.869,194.173,188.729,154.688
0.095,9.154,4.875,4.875,194.181,188.761,154.686
0.096,9.186,4.880,4.880,194.190,188.791,154.681
0.097,9.217,4.884,4.884,194.197,188.820,154.672
0.099,9.249,4.890,4.890,194.205,188.848,154.659
0.100,9.283,4.899,4.899,194.212,188.876,154.642
0.102,9.319,4.911,4.911,194.221,188.905,154.621
0.103,9.359,4.928,4.928,194.230,188.935,154.597
0.105,9.403,4.948,4.948,194.241,188.968,154.569
0.106,9.452,4.972,4.972,194.254,189.002,154.537
0.107,9.506,4.999,4.999,194.269,189.040,154.501
0.109,9.566,5.027,5.027,194.286,189.082,154.462
0.110,9.633,5.058,5.058,194.307,189.127,154.418
0.112,9.705,5.090,5.090,194.330,189.177,154.372
0.113,9.781,5.123,5.123,194.354,189.231,154.323
0.114,9.860,5.156,5.156,194.380,189.286,154.274
0.116,9.939,5.189,5.189,194.405,189.344,154.224
0.117,10.018,5.221,5.221,194.428,189.401,154.176
0.119,10.095,5.251,5.251,194.450,189.459,154.131
0.120,10.167,5.280,5.280,194.468,189.515,154.089
0.121,10.235,5.306,5.306,194.482,189.570,154.051
0.123,10.296,5.329,5.329,194.490,189.622,154.020
0.124,10.350,5.349,5.349,194.492,189.669,153.996
0.126,10.396,5.365,5.365,194.487,189.713,153.979
0.127,10.438,5.377,5.377,194.476,189.752,153.971
0.129,10.478,5.386,5.386,194.459,189.788,153.969
0.130,10.519,5.390,5.390,194.438,189.823,153.972
0.131,10.561,5.390,5.390,194.415,189.858,153.978
0.133,10.606,5.385,5.385,194.391,189.895,153.985
0.134,10.653,5.377,5.377,194.368,189.935,153.993
0.136,10.702,5.367,5.367,194.348,189.980,154.000
0.137,10.756,5.356,5.356,194.332,190.032,154.004
0.138,10.816,5.345,5.345,194.322,190.091,154.003
0.140,10.885,5.336,5.336,194.319,190.159,153.997
0.141,10.965,5.330,5.330,194.325,190.238,153.982
0.143,11.058,5.327,5.327,194.340,190.327,153.961
0.144,11.159,5.328,5.328,194.362,190.422,153.935
0.145,11.265,5.329,5.329,194.389,190.520,153.907
0.147,11.370,5.329,5.329,194.420,190.617,153.879
0.148,11.471,5.326,5.326,194.454,190.709,153.854
0.150,11.563,5.319,5.319,194.487,190.792,153.834
0.151,11.641,5.305,5.305,194.519,190.862,153.822
0.153,11.703,5.284,5.284,194.548,190.917,153.821
0.154,11.747,5.257,5.257,194.572,190.952,153.832
0.155,11.780,5.229,5.229,194.589,190.963,153.858
0.157,11.828,5.204,5.204,194.598,190.947,153.902
0.158,11.901,5.186,5.186,194.598,190.906,153.963
0.160,11.992,5.181,5.181,194.592,190.847,154.032
0.161,12.089,5.192,5.192,194.582,190.781,154.102
0.162,12.181,5.224,5.224,194.571,190.717,154.167
0.164,12.255,5.273,5.273,194.560,190.663,154.217
0.165,12.300,5.330,5.330,194.553,190.630,154.247
0.167,12.304,5.384,5.384,194.551,190.626,154.247
0.168,12.355,5.427,5.427,194.557,190.661,154.210
0.169,12.472,5.448,5.448,194.573,190.744,154.130
0.171,12.667,5.439,5.439,194.603,190.884,153.997
0.172,12.953,5.389,5.389,194.647,191.091,153.805
0.174,13.330,5.300,5.300,194.707,191.366,153.553
0.175,13.784,5.184,5.184,194.780,191.697,153.252
0.177,14.297,5.055,5.055,194.862,192.073,152.912
0.178,14.853,4.928,4.928,194.951,192.481,152.546
0.179,15.433,4.815,4.815,195.044,192.908,152.164
0.181,16.022,4.731,4.731,195.137,193.342,151.778
0.182,16.601,4.689,4.689,195.228,193.772,151.400
0.184,17.154,4.695,4.695,195.313,194.183,151.040
0.185,17.664,4.740,4.740,195.389,194.565,150.710
0.186,18.114,4.814,4.814,195.454,194.904,150.423
0.188,18.486,4.906,4.906,195.505,195.188,150.188
0.189,18.772,5.007,5.007,195.539,195.412,150.012
0.191,18.982,5.105,5.105,195.558,195.580,149.888
0.192,19.124,5.190,5.190,195.565,195.699,149.811
0.194,19.211,5.256,5.256,195.562,195.777,149.773
0.195,19.256,5.303,5.303,195.550,195.819,149.767
0.196,19.286,5.334,5.334,195.531,195.834,149.786
0.198,19.331,5.352,5.352,195.507,195.828,149.823
0.199,19.389,5.360,5.360,195.481,195.808,149.871
0.201,19.454,5.360,5.360,195.454,195.781,149.924
0.202,19.517,5.357,5.357,195.429,195.753,149.974
0.203,19.568,5.351,5.351,195.406,195.732,150.014
0.205,19.601,5.344,5.344,195.389,195.722,150.040
0.206,19.620,5.338,5.338,195.375,195.722,150.053
0.208,19.634,5.333,5.333,195.365,195.733,150.054
0.209,19.656,5.331,5.331,195.358,195.752,150.046
0.210,19.688,5.331,5.331,195.354,195.779,150.029
0.212,19.729,5.336,5.336,195.352,195.812,150.005
0.213,19.777,5.346,5.346,195.352,195.851,149.977
0.215,19.830,5.361,5.361,195.352,195.894,149.946
0.216,19.887,5.379,5.379,195.354,195.940,149.913
0.218,19.946,5.400,5.400,195.355,195.989,149.880
0.219,20.004,5.424,5.424,195.356,196.038,149.849
0.220,20.062,5.448,5.448,195.356,196.088,149.821
0.222,20.117,5.473,5.473,195.356,196.138,149.796
0.223,20.172,5.497,5.497,195.355,196.187,149.773
0.225,20.225,5.520,5.520,195.355,196.236,149.751
0.226,20.276,5.541,5.541,195.355,196.283,149.731
0.227,20.326,5.559,5.559,195.355,196.329,149.711
0.229,20.375,5.572,5.572,195.357,196.373,149.690
0.230,20.421,5.581,5.581,195.360,196.415,149.670
0.232,20.467,5.584,5.584,195.364,196.454,149.647
0.233,20.511,5.580,5.580,195.371,196.491,149.623
0.234,20.555,5.570,5.570,195.380,196.524,149.597
0.236,20.598,5.558,5.558,195.391,196.555,149.568
0.237,20.642,5.546,5.546,195.404,196.583,149.537
0.239,20.687,5.536,5.536,195.417,196.612,149.506
0.240,20.732,5.532,5.532,195.429,196.643,149.475
0.242,20.778,5.537,5.537,195.438,196.677,149.445
0.243,20.826,5.554,5.554,195.444,196.717,149.419
0.244,20.878,5.582,5.582,195.446,196.763,149.396
0.246,20.935,5.619,5.619,195.441,196.817,149.378
0.247,21.002,5.663,5.663,195.430,196.882,149.366
0.249,21.082,5.709,5.709,195.410,196.959,149.362
0.250,21.177,5.756,5.756,195.381,197.050,149.365
0.251,21.290,5.799,5.799,195.341,197.155,149.378
0.253,21.419,5.836,5.836,195.293,197.272,149.399
0.254,21.560,5.865,5.865,195.237,197.399,149.427
0.256,21.711,5.887,5.887,195.176,197.533,149.461
0.257,21.868,5.904,5.904,195.111,197.670,149.499
0.258,22.027,5.916,5.916,195.043,197.808,149.540
0.260,22.186,5.926,5.925,194.975,197.945,149.584
0.261,22.339,5.934,5.934,194.908,198.076,149.628
0.263,22.485,5.941,5.942,194.843,198.199,149.672
0.264,22.620,5.950,5.950,194.783,198.312,149.714
0.266,22.739,5.960,5.960,194.730,198.412,149.753
0.267,22.841,5.970,5.970,194.683,198.495,149.788
0.268,22.926,5.981,5.981,194.644,198.564,149.819
0.270,22.995,5.991,5.991,194.613,198.619,149.845
0.271,23.050,6.000,6.000,194.588,198.664,149.867
0.273,23.094,6.009,6.009,194.570,198.699,149.884
0.274,23.126,6.016,6.016,194.557,198.726,149.897
0.275,23.151,6.023,6.023,194.550,198.748,149.906
0.277,23.169,6.029,6.028,194.549,198.766,149.909
0.278,23.185,6.035,6.034,194.552,198.782,149.909
0.280,23.204,6.041,6.041,194.561,198.797,149.903
0.281,23.228,6.048,6.048,194.573,198.815,149.892
0.282,23.258,6.056,6.056,194.589,198.835,149.877
0.284,23.293,6.065,6.066,194.607,198.858,149.858
0.285,23.330,6.075,6.076,194.626,198.882,149.837
0.287,23.367,6.083,6.085,194.644,198.906,149.815
0.288,23.402,6.087,6.090,194.660,198.928,149.793
0.290,23.432,6.086,6.089,194.672,198.946,149.772
0.291,23.454,6.077,6.080,194.678,198.959,149.755
0.292,23.470,6.060,6.061,194.676,198.966,149.741
0.294,23.483,6.031,6.030,194.666,198.965,149.733
0.295,23.506,5.995,5.989,194.645,198.955,149.732
0.297,23.546,5.953,5.945,194.612,198.933,149.739
0.298,23.605,5.912,5.901,194.565,198.901,149.755
0.299,23.678,5.876,5.864,194.508,198.861,149.777
0.301,23.756,5.848,5.839,194.445,198.821,149.802
0.302,23.833,5.835,5.830,194.381,198.788,149.825
0.304,23.900,5.840,5.844,194.320,198.769,149.844
0.305,23.954,5.860,5.878,194.266,198.770,149.853
0.306,24.005,5.886,5.920,194.224,198.798,149.850
0.308,24.076,5.907,5.960,194.198,198.861,149.830
0.309,24.188,5.914,5.984,194.194,198.965,149.789
0.311,24.355,5.896,5.983,194.215,199.117,149.723
0.312,24.588,5.842,5.943,194.265,199.324,149.629
0.314,24.895,5.743,5.854,194.350,199.592,149.504
0.315,25.272,5.596,5.714,194.466,199.916,149.350
0.316,25.706,5.411,5.535,194.608,200.287,149.175
0.318,26.186,5.201,5.332,194.772,200.695,148.984
0.319,26.698,4.975,5.120,194.952,201.132,148.785
0.321,27.230,4.747,4.913,195.143,201.586,148.585
0.322,27.771,4.527,4.725,195.340,202.050,148.389
0.323,28.307,4.328,4.573,195.537,202.513,148.205
0.325,28.826,4.156,4.463,195.730,202.966,148.039
0.326,29.317,4.014,4.391,195.913,203.399,147.897
0.328,29.769,3.899,4.347,196.082,203.803,147.787
0.329,30.171,3.810,4.325,196.231,204.169,147.715
0.331,30.524,3.746,4.315,196.359,204.497,147.679
0.332,30.836,3.706,4.310,196.467,204.790,147.674
0.333,31.114,3.688,4.301,196.556,205.052,147.694
0.335,31.364,3.692,4.282,196.627,205.288,147.735
0.336,31.591,3.711,4.254,196.681,205.501,147.791
0.338,31.800,3.743,4.219,196.719,205.696,147.856
0.339,31.994,3.783,4.180,196.742,205.876,147.926
0.340,32.178,3.826,4.141,196.750,206.047,147.994
0.342,32.353,3.867,4.102,196.746,206.211,148.055
0.343,32.523,3.901,4.068,196.729,206.373,148.104
0.345,32.692,3.926,4.041,196.701,206.536,148.136
0.346,32.864,3.943,4.022,196.664,206.703,148.150
0.347,33.040,3.953,4.013,196.620,206.874,148.148
0.349,33.221,3.962,4.013,196.571,207.047,148.132
0.350,33.406,3.972,4.025,196.521,207.223,148.104
0.352,33.596,3.986,4.050,196.470,207.403,148.066
0.353,33.790,4.008,4.087,196.422,207.584,148.020
0.355,33.986,4.041,4.139,196.380,207.768,147.969
0.356,34.183,4.084,4.203,196.345,207.955,147.913
0.357,34.382,4.135,4.276,196.320,208.144,147.856
0.359,34.581,4.192,4.355,196.307,208.334,147.799
0.360,34.781,4.253,4.435,196.309,208.527,147.745
0.362,34.982,4.315,4.515,196.326,208.720,147.694
0.363,35.181,4.377,4.589,196.355,208.911,147.647
0.364,35.377,4.436,4.656,196.393,209.098,147.603
0.366,35.568,4.492,4.713,196.440,209.279,147.563
0.367,35.751,4.543,4.761,196.492,209.451,147.526
0.369,35.924,4.589,4.801,196.546,209.612,147.494
0.370,36.085,4.632,4.834,196.602,209.760,147.465
0.371,36.230,4.669,4.859,196.656,209.892,147.440
0.373,36.357,4.701,4.879,196.706,210.007,147.420
0.374,36.462,4.728,4.892,196.750,210.101,147.403
0.376,36.544,4.750,4.901,196.786,210.174,147.391
0.377,36.602,4.767,4.906,196.812,210.225,147.383
0.379,36.640,4.780,4.908,196.831,210.258,147.378
0.380,36.664,4.788,4.908,196.844,210.278,147.376
0.381,36.677,4.794,4.907,196.851,210.288,147.377
0.383,36.684,4.796,4.907,196.855,210.293,147.381
0.384,36.690,4.795,4.908,196.856,210.297,147.385
0.386,36.698,4.793,4.911,196.856,210.303,147.391
0.387,36.712,4.790,4.917,196.855,210.315,147.398
0.388,36.737,4.788,4.925,196.856,210.339,147.405
0.390,36.775,4.788,4.935,196.860,210.377,147.411
0.391,36.833,4.792,4.947,196.868,210.433,147.417
0.393,36.909,4.801,4.963,196.879,210.509,147.422
0.394,37.002,4.816,4.980,196.894,210.600,147.426
0.395,37.107,4.839,5.001,196.909,210.704,147.430
0.397,37.221,4.866,5.024,196.925,210.817,147.434
0.398,37.340,4.897,5.049,196.938,210.935,147.438
0.400,37.462,4.929,5.075,196.949,211.056,147.443
0.401,37.581,4.960,5.102,196.956,211.175,147.448
0.403,37.696,4.988,5.130,196.957,211.290,147.455
0.404,37.803,5.010,5.159,196.952,211.396,147.463
0.405,37.899,5.024,5.187,196.937,211.491,147.472
0.407,37.983,5.033,5.215,196.913,211.571,147.484
0.408,38.057,5.038,5.242,196.879,211.635,147.497
0.410,38.126,5.040,5.267,196.836,211.686,147.511
0.411,38.194,5.042,5.290,196.786,211.730,147.524
0.412,38.264,5.045,5.310,196.728,211.769,147.536
0.414,38.338,5.052,5.328,196.666,211.807,147.545
0.415,38.416,5.063,5.342,196.599,211.848,147.550
0.417,38.500,5.080,5.352,196.530,211.896,147.550
0.418,38.592,5.100,5.362,196.459,211.954,147.544
0.419,38.695,5.124,5.370,196.387,212.026,147.531
0.421,38.812,5.149,5.380,196.316,212.116,147.509
0.422,38.946,5.177,5.391,196.247,212.228,147.478
0.424,39.102,5.205,5.405,196.181,212.362,147.437
0.425,39.276,5.232,5.424,196.118,212.517,147.388
0.427,39.465,5.260,5.446,196.058,212.687,147.332
0.428,39.666,5.288,5.473,196.001,212.870,147.269
0.429,39.876,5.318,5.504,195.948,213.061,147.202
0.431,40.091,5.350,5.539,195.897,213.259,147.132
0.432,40.308,5.385,5.577,195.851,213.458,147.060
0.434,40.523,5.424,5.618,195.808,213.655,146.988
0.435,40.732,5.468,5.662,195.769,213.847,146.916
0.436,40.931,5.516,5.709,195.733,214.031,146.846
0.438,41.117,5.568,5.758,195.702,214.202,146.780
0.439,41.288,5.620,5.807,195.675,214.359,146.718
0.441,41.445,5.674,5.856,195.651,214.502,146.660
0.442,41.588,5.726,5.904,195.630,214.633,146.606
0.444,41.719,5.776,5.949,195.612,214.753,146.555
0.445,41.839,5.822,5.992,195.596,214.862,146.508
0.446,41.950,5.864,6.032,195.582,214.963,146.465
0.448,42.052,5.903,6.068,195.570,215.056,146.424
0.449,42.146,5.939,6.101,195.558,215.142,146.387
0.451,42.235,5.973,6.132,195.548,215.222,146.352
0.452,42.318,6.005,6.160,195.537,215.299,146.320
0.453,42.398,6.037,6.185,195.526,215.372,146.290
0.455,42.474,6.070,6.209,195.515,215.442,146.262
0.456,42.549,6.103,6.231,195.505,215.511,146.235
0.458,42.621,6.137,6.251,195.495,215.577,146.209
0.459,42.691,6.171,6.270,195.488,215.642,146.183
0.460,42.760,6.205,6.288,195.484,215.705,146.156
0.462,42.827,6.237,6.306,195.483,215.766,146.127
0.463,42.895,6.268,6.324,195.487,215.826,146.096
0.465,42.964,6.298,6.342,195.497,215.885,146.061
0.466,43.035,6.325,6.360,195.513,215.943,146.023
0.468,43.110,6.349,6.379,195.536,215.999,145.980
0.469,43.190,6.371,6.399,195.566,216.055,145.931
0.470,43.277,6.391,6.420,195.605,216.111,145.877
0.472,43.370,6.407,6.441,195.652,216.166,145.818
0.473,43.469,6.421,6.462,195.704,216.222,145.756
0.475,43.573,6.431,6.485,195.762,216.279,145.691
0.476,43.680,6.438,6.508,195.823,216.337,145.625
0.477,43.790,6.443,6.531,195.888,216.398,145.558
0.479,43.903,6.446,6.553,195.953,216.461,145.493
0.480,44.015,6.447,6.575,196.019,216.527,145.430
0.482,44.128,6.449,6.594,196.085,216.598,145.371
0.483,44.241,6.451,6.611,196.148,216.672,145.316
0.484,44.352,6.454,6.625,196.208,216.752,145.266
0.486,44.462,6.460,6.635,196.265,216.836,145.224
0.487,44.571,6.468,6.641,196.317,216.925,145.187
0.489,44.680,6.478,6.645,196.366,217.017,145.156
0.490,44.788,6.490,6.646,196.413,217.110,145.129
0.492,44.895,6.503,6.646,196.456,217.205,145.106
0.493,45.000,6.518,6.644,196.498,217.300,145.087
0.494,45.103,6.534,6.643,196.538,217.393,145.071
0.496,45.203,6.551,6.642,196.577,217.484,145.057
0.497,45.299,6.568,6.642,196.615,217.572,145.043
0.499,45.391,6.586,6.642,196.653,217.655,145.031
0.500,45.478,6.604,6.644,196.691,217.732,145.019
0.501,45.560,6.621,6.647,196.729,217.803,145.006
0.503,45.635,6.638,6.652,196.767,217.867,144.993
0.504,45.706,6.654,6.658,196.804,217.925,144.979
0.506,45.770,6.669,6.667,196.840,217.977,144.965
0.507,45.830,6.682,6.676,196.875,218.023,144.952
0.508,45.883,6.694,6.687,196.907,218.063,144.939
0.510,45.931,6.704,6.698,196.937,218.098,144.926
0.511,45.972,6.713,6.708,196.964,218.128,144.915
0.513,46.007,6.719,6.716,196.986,218.153,144.904
0.514,46.036,6.724,6.723,197.004,218.173,144.895
0.516,46.059,6.726,6.726,197.018,218.189,144.887
0.517,46.074,6.726,6.726,197.026,218.201,144.881
0.518,46.085,6.725,6.724,197.030,218.209,144.876
0.520,46.091,6.723,6.721,197.031,218.215,144.872
0.521,46.096,6.720,6.718,197.030,218.219,144.870
0.523,46.099,6.718,6.715,197.028,218.221,144.868
0.524,46.102,6.717,6.715,197.027,218.223,144.868
0.525,46.104,6.717,6.717,197.027,218.225,144.867
0.527,46.108,6.718,6.723,197.030,218.228,144.867
0.528,46.116,6.722,6.732,197.036,218.233,144.868
0.530,46.130,6.726,6.744,197.048,218.240,144.868
0.531,46.151,6.730,6.759,197.067,218.251,144.867
0.532,46.181,6.735,6.775,197.092,218.265,144.867
0.534,46.218,6.740,6.794,197.125,218.284,144.865
0.535,46.263,6.743,6.813,197.164,218.306,144.862
0.537,46.316,6.745,6.834,197.209,218.332,144.857
0.538,46.375,6.746,6.854,197.259,218.362,144.849
0.540,46.440,6.746,6.872,197.313,218.396,144.838
0.541,46.511,6.745,6.888,197.372,218.434,144.823
0.542,46.587,6.744,6.901,197.434,218.475,144.804
0.544,46.669,6.743,6.908,197.498,218.519,144.781
0.545,46.756,6.741,6.910,197.564,218.567,144.752
0.547,46.848,6.739,6.905,197.632,218.619,144.718
0.548,46.944,6.738,6.893,197.701,218.674,144.677
0.549,47.044,6.735,6.878,197.769,218.730,144.632
0.551,47.144,6.731,6.859,197.836,218.786,144.583
0.552,47.242,6.726,6.838,197.901,218.841,144.534
0.554,47.337,6.718,6.818,197.963,218.892,144.485
0.555,47.424,6.708,6.798,198.021,218.938,144.438
0.556,47.501,6.694,6.782,198.074,218.976,144.396
0.558,47.567,6.678,6.769,198.120,219.006,144.360
0.559,47.619,6.661,6.760,198.160,219.024,144.332
0.561,47.656,6.644,6.757,198.192,219.030,144.314
0.562,47.682,6.629,6.760,198.215,219.021,144.308
0.564,47.710,6.617,6.769,198.228,218.997,144.315
0.565,47.751,6.610,6.785,198.234,218.961,144.331
0.566,47.798,6.609,6.810,198.234,218.918,144.352
0.568,47.843,6.612,6.839,198.232,218.877,144.370
0.569,47.880,6.615,6.867,198.231,218.841,144.381
0.571,47.903,6.612,6.888,198.234,218.819,144.378
0.572,47.927,6.600,6.895,198.243,218.816,144.356
0.573,47.983,6.573,6.883,198.261,218.838,144.308
0.575,48.084,6.527,6.844,198.293,218.892,144.229
