"T","Distance","Radius","FreeRadius","X","Y","Z"
0.000,0.000,1.473,1.473,236.622,215.961,213.801
0.001,0.150,1.537,1.537,236.582,215.943,213.945
0.003,0.302,1.601,1.601,236.544,215.926,214.090
0.004,0.455,1.666,1.666,236.508,215.907,214.238
0.006,0.611,1.734,1.734,236.475,215.888,214.389
0.007,0.771,1.805,1.805,236.447,215.868,214.545
0.009,0.936,1.879,1.879,236.424,215.846,214.707
0.010,1.107,1.957,1.957,236.408,215.823,214.877
0.012,1.287,2.041,2.041,236.400,215.798,215.054
0.013,1.476,2.130,2.130,236.400,215.771,215.241
0.014,1.676,2.226,2.226,236.410,215.742,215.439
0.016,1.890,2.331,2.331,236.432,215.710,215.649
0.017,2.116,2.443,2.443,236.465,215.675,215.871
0.019,2.353,2.566,2.566,236.508,215.639,216.100
0.020,2.594,2.699,2.699,236.559,215.602,216.333
0.022,2.837,2.842,2.842,236.618,215.565,216.566
0.023,3.077,2.992,2.992,236.682,215.529,216.794
0.025,3.309,3.142,3.142,236.750,215.496,217.014
0.026,3.529,3.287,3.287,236.820,215.467,217.220
0.027,3.732,3.421,3.421,236.891,215.441,217.409
0.029,3.915,3.539,3.539,236.962,215.421,217.576
0.030,4.072,3.635,3.635,237.030,215.407,217.717
0.032,4.201,3.706,3.706,237.095,215.401,217.829
0.033,4.302,3.754,3.754,237.155,215.402,217.909
0.035,4.380,3.783,3.783,237.210,215.407,217.964
0.036,4.441,3.798,3.798,237.262,215.416,217.996
0.038,4.493,3.803,3.803,237.310,215.425,218.012
0.039,4.539,3.801,3.801,237.355,215.433,218.016
0.040,4.581,3.797,3.797,237.397,215.438,218.013
0.042,4.621,3.796,3.796,237.437,215.436,218.006
0.043,4.660,3.798,3.798,237.474,215.427,218.003
0.045,4.701,3.805,3.805,237.510,215.407,218.006
0.046,4.751,3.818,3.818,237.545,215.375,218.021
0.048,4.816,3.838,3.838,237.579,215.329,218.052
0.049,4.900,3.867,3.867,237.612,215.269,218.101
0.051,5.000,3.906,3.906,237.643,215.197,218.163
0.052,5.113,3.956,3.956,237.674,215.117,218.237
0.053,5.234,4.013,4.013,237.703,215.032,218.318
0.055,5.360,4.075,4.075,237.730,214.945,218.404
0.056,5.486,4.140,4.140,237.756,214.857,218.491
0.058,5.608,4.204,4.204,237.779,214.773,218.576
0.059,5.722,4.264,4.264,237.800,214.695,218.657
0.061,5.823,4.317,4.317,237.818,214.627,218.729
0.062,5.908,4.361,4.361,237.834,214.570,218.790
0.063,5.973,4.396,4.396,237.846,214.527,218.837
0.065,6.018,4.423,4.423,237.856,214.498,218.870
0.066,6.046,4.442,4.442,237.864,214.481,218.891
0.068,6.062,4.454,4.454,237.871,214.472,218.902
0.069,6.069,4.460,4.460,237.876,214.470,218.906
0.071,6.075,4.461,4.461,237.882,214.471,218.904
0.072,6.084,4.458,4.458,237.889,214.472,218.898
0.074,6.094,4.452,4.452,237.896,214.472,218.891
0.075,6.107,4.445,4.445,237.906,214.468,218.884
0.076,6.124,4.438,4.438,237.918,214.457,218.881
0.078,6.149,4.434,4.434,237.933,214.436,218.882
0.079,6.188,4.435,4.435,237.952,214.403,218.890
0.081,6.238,4.441,4.441,237.974,214.360,218.904
0.082,6.299,4.454,4.454,237.998,214.309,218.923
0.084,6.366,4.473,4.473,238.024,214.251,218.946
0.085,6.438,4.495,4.495,238.051,214.189,218.972
0.087,6.512,4.519,4.519,238.078,214.126,219.000
0.088,6.586,4.543,4.543,238.104,214.063,219.028
0.089,6.657,4.563,4.563,238.129,214.002,219.056
0.091,6.722,4.580,4.580,238.151,213.947,219.082
0.092,6.778,4.589,4.589,238.169,213.899,219.105
0.094,6.824,4.594,4.594,238.184,213.860,219.124
0.095,6.857,4.594,4.594,238.194,213.832,219.138
0.097,6.878,4.590,4.590,238.201,213.814,219.148
0.098,6.891,4.585,4.585,238.204,213.804,219.155
0.100,6.896,4.578,4.578,238.205,213.801,219.159
0.101,6.900,4.571,4.571,238.204,213.803,219.163
0.102,6.906,4.566,4.566,238.202,213.807,219.166
0.104,6.914,4.561,4.561,238.201,213.814,219.171
0.105,6.923,4.556,4.556,238.201,213.820,219.177
0.107,6.933,4.551,4.551,238.202,213.824,219.186
0.108,6.946,4.544,4.544,238.206,213.825,219.199
0.110,6.966,4.536,4.536,238.213,213.820,219.217
0.111,6.994,4.525,4.525,238.225,213.810,219.240
0.113,7.032,4.512,4.512,238.244,213.793,219.268
0.114,7.081,4.496,4.496,238.272,213.769,219.301
0.115,7.142,4.479,4.479,238.311,213.739,219.336
0.117,7.217,4.461,4.461,238.364,213.703,219.375
0.118,7.308,4.443,4.443,238.434,213.661,219.416
0.120,7.417,4.426,4.426,238.522,213.612,219.458
0.121,7.546,4.410,4.410,238.630,213.557,219.501
0.123,7.698,4.397,4.397,238.762,213.496,219.544
0.124,7.874,4.388,4.388,238.920,213.429,219.586
0.126,8.077,4.385,4.385,239.105,213.356,219.627
0.127,8.307,4.388,4.388,239.317,213.276,219.668
0.128,8.560,4.401,4.401,239.550,213.190,219.709
0.130,8.829,4.425,4.425,239.800,213.098,219.753
0.131,9.112,4.461,4.461,240.059,212.998,219.803
0.133,9.403,4.510,4.510,240.324,212.891,219.861
0.134,9.697,4.569,4.569,240.587,212.776,219.927
0.136,9.992,4.636,4.636,240.843,212.654,220.006
0.137,10.284,4.707,4.707,241.087,212.523,220.098
0.139,10.570,4.779,4.779,241.313,212.384,220.206
0.140,10.850,4.847,4.847,241.515,212.236,220.332
0.141,11.125,4.910,4.910,241.688,212.080,220.478
0.143,11.398,4.964,4.964,241.831,211.915,220.642
0.144,11.670,5.011,5.011,241.947,211.746,220.821
0.146,11.942,5.053,5.053,242.039,211.574,221.010
0.147,12.211,5.091,5.091,242.110,211.403,221.205
0.149,12.475,5.130,5.130,242.164,211.236,221.401
0.150,12.731,5.170,5.170,242.203,211.074,221.596
0.152,12.974,5.213,5.213,242.232,210.921,221.783
0.153,13.202,5.262,5.262,242.252,210.779,221.960
0.154,13.408,5.315,5.315,242.268,210.652,222.122
0.156,13.589,5.370,5.370,242.282,210.541,222.264
0.157,13.740,5.423,5.423,242.298,210.450,222.383
0.159,13.861,5.475,5.475,242.315,210.378,222.479
0.160,13.955,5.521,5.521,242.334,210.324,222.553
0.162,14.024,5.560,5.560,242.354,210.286,222.608
0.163,14.072,5.590,5.590,242.375,210.262,222.644
0.165,14.103,5.611,5.611,242.395,210.251,222.664
0.166,14.124,5.625,5.625,242.415,210.252,222.670
0.167,14.146,5.632,5.632,242.434,210.262,222.663
0.169,14.176,5.634,5.634,242.450,210.281,222.646
0.170,14.216,5.630,5.630,242.465,210.306,222.619
0.172,14.263,5.621,5.621,242.476,210.337,222.585
0.173,14.315,5.610,5.610,242.484,210.370,222.546
0.175,14.368,5.596,5.596,242.489,210.405,222.506
0.176,14.418,5.582,5.582,242.492,210.437,222.468
0.177,14.459,5.569,5.569,242.493,210.464,222.437
0.179,14.487,5.558,5.558,242.493,210.483,222.417
0.180,14.496,5.551,5.551,242.492,210.490,222.411
0.182,14.511,5.549,5.549,242.492,210.484,222.425
0.183,14.554,5.554,5.554,242.491,210.461,222.461
0.185,14.631,5.566,5.566,242.493,210.418,222.525
0.186,14.746,5.585,5.585,242.496,210.352,222.619
0.188,14.906,5.611,5.611,242.501,210.261,222.749
0.189,15.111,5.647,5.647,242.509,210.142,222.917
0.190,15.354,5.690,5.690,242.520,210.001,223.115
0.192,15.627,5.743,5.743,242.533,209.843,223.336
0.193,15.919,5.805,5.805,242.548,209.673,223.573
0.195,16.221,5.873,5.873,242.565,209.497,223.818
0.196,16.523,5.944,5.944,242.582,209.321,224.063
0.198,16.817,6.014,6.014,242.600,209.149,224.301
0.199,17.092,6.080,6.080,242.618,208.988,224.524
0.201,17.340,6.140,6.140,242.635,208.843,224.724
0.202,17.550,6.189,6.189,242.652,208.719,224.893
0.203,17.714,6.225,6.225,242.668,208.623,225.024
0.205,17.826,6.250,6.250,242.683,208.556,225.113
0.206,17.895,6.265,6.265,242.698,208.515,225.167
0.208,17.927,6.273,6.273,242.712,208.498,225.189
0.209,17.942,6.275,6.275,242.727,208.499,225.188
0.211,17.972,6.275,6.275,242.744,208.515,225.169
0.212,18.017,6.273,6.273,242.762,208.542,225.139
0.214,18.071,6.272,6.272,242.783,208.577,225.103
0.215,18.128,6.273,6.273,242.807,208.615,225.068
0.216,18.183,6.275,6.275,242.836,208.653,225.040
0.218,18.233,6.280,6.280,242.868,208.687,225.025
0.219,18.279,6.287,6.287,242.906,208.713,225.030
0.221,18.332,6.297,6.297,242.950,208.729,225.056
0.222,18.397,6.311,6.311,242.997,208.737,225.100
0.224,18.475,6.328,6.328,243.047,208.737,225.160
0.225,18.564,6.348,6.348,243.098,208.731,225.232
0.227,18.660,6.369,6.369,243.151,208.720,225.311
0.228,18.761,6.389,6.389,243.203,208.704,225.397
0.229,18.863,6.408,6.408,243.253,208.685,225.484
0.231,18.963,6.423,6.423,243.301,208.665,225.569
0.232,19.057,6.434,6.434,243.345,208.644,225.650
0.234,19.142,6.439,6.439,243.384,208.622,225.722
0.235,19.214,6.440,6.440,243.417,208.603,225.783
0.237,19.274,6.437,6.437,243.444,208.585,225.833
0.238,19.325,6.432,6.432,243.469,208.568,225.874
0.240,19.369,6.426,6.426,243.493,208.552,225.908
0.241,19.411,6.421,6.421,243.518,208.537,225.938
0.242,19.453,6.416,6.416,243.546,208.522,225.966
0.244,19.500,6.414,6.414,243.580,208.507,225.994
0.245,19.555,6.415,6.415,243.622,208.492,226.026
0.247,19.620,6.417,6.417,243.673,208.476,226.063
0.248,19.700,6.422,6.422,243.737,208.458,226.107
0.250,19.797,6.429,6.429,243.815,208.439,226.162
0.251,19.914,6.437,6.437,243.908,208.419,226.230
0.253,20.050,6.447,6.447,244.017,208.397,226.308
0.254,20.200,6.458,6.458,244.137,208.374,226.395
0.255,20.361,6.470,6.470,244.266,208.352,226.488
0.257,20.528,6.483,6.483,244.401,208.330,226.585
0.258,20.698,6.496,6.496,244.540,208.311,226.681
0.260,20.866,6.509,6.509,244.678,208.294,226.776
0.261,21.029,6.522,6.522,244.814,208.280,226.866
0.263,21.183,6.533,6.533,244.944,208.271,226.948
0.264,21.325,6.544,6.544,245.065,208.267,227.020
0.266,21.449,6.554,6.553,245.175,208.268,227.079
0.267,21.555,6.561,6.561,245.271,208.276,227.123
0.268,21.644,6.567,6.566,245.353,208.290,227.152
0.270,21.718,6.570,6.569,245.423,208.308,227.170
0.271,21.780,6.569,6.569,245.481,208.330,227.177
0.273,21.833,6.566,6.566,245.528,208.354,227.175
0.274,21.880,6.559,6.559,245.565,208.381,227.166
0.276,21.921,6.549,6.550,245.593,208.407,227.152
0.277,21.959,6.537,6.538,245.614,208.434,227.135
0.278,21.993,6.524,6.526,245.628,208.459,227.117
0.280,22.023,6.511,6.513,245.635,208.481,227.098
0.281,22.048,6.499,6.500,245.638,208.500,227.082
0.283,22.067,6.489,6.489,245.637,208.514,227.069
0.284,22.081,6.482,6.480,245.633,208.524,227.060
0.286,22.091,6.477,6.473,245.628,208.531,227.054
0.287,22.098,6.474,6.468,245.621,208.533,227.053
0.289,22.105,6.473,6.466,245.615,208.532,227.056
0.290,22.115,6.474,6.467,245.610,208.527,227.062
0.291,22.128,6.477,6.472,245.608,208.519,227.073
0.293,22.147,6.480,6.480,245.609,208.508,227.088
0.294,22.171,6.484,6.491,245.615,208.493,227.107
0.296,22.202,6.487,6.505,245.626,208.477,227.130
0.297,22.241,6.490,6.520,245.644,208.457,227.158
0.299,22.286,6.491,6.534,245.668,208.435,227.190
0.300,22.338,6.489,6.546,245.699,208.412,227.225
0.302,22.395,6.483,6.555,245.734,208.387,227.262
0.303,22.456,6.472,6.560,245.773,208.362,227.301
0.304,22.518,6.456,6.558,245.814,208.336,227.339
0.306,22.580,6.436,6.552,245.857,208.311,227.377
0.307,22.642,6.413,6.541,245.900,208.286,227.414
0.309,22.700,6.388,6.528,245.941,208.263,227.447
0.310,22.754,6.363,6.513,245.981,208.241,227.477
0.312,22.802,6.338,6.497,246.016,208.222,227.503
0.313,22.843,6.316,6.481,246.048,208.205,227.522
0.315,22.875,6.297,6.467,246.074,208.191,227.537
0.316,22.902,6.282,6.455,246.096,208.181,227.546
0.317,22.922,6.269,6.444,246.114,208.172,227.551
0.319,22.939,6.260,6.436,246.129,208.166,227.553
0.320,22.951,6.254,6.429,246.142,208.163,227.553
0.322,22.962,6.251,6.425,246.152,208.161,227.551
0.323,22.972,6.250,6.422,246.161,208.161,227.548
0.325,22.980,6.252,6.422,246.169,208.163,227.546
0.326,22.989,6.256,6.424,246.178,208.166,227.544
0.328,22.999,6.260,6.425,246.186,208.171,227.545
0.329,23.010,6.263,6.425,246.196,208.176,227.548
0.330,23.025,6.264,6.423,246.208,208.182,227.555
0.332,23.046,6.263,6.417,246.225,208.187,227.566
0.333,23.075,6.257,6.406,246.249,208.189,227.581
0.335,23.115,6.246,6.389,246.283,208.187,227.602
0.336,23.169,6.229,6.366,246.329,208.180,227.630
0.338,23.239,6.203,6.336,246.388,208.167,227.664
0.339,23.328,6.167,6.297,246.465,208.147,227.705
0.341,23.439,6.120,6.250,246.559,208.117,227.755
0.342,23.574,6.059,6.193,246.675,208.077,227.814
0.343,23.738,5.984,6.127,246.814,208.026,227.882
0.345,23.930,5.893,6.050,246.978,207.962,227.960
0.346,24.149,5.791,5.965,247.164,207.886,228.047
0.348,24.390,5.682,5.875,247.369,207.801,228.140
0.349,24.646,5.571,5.781,247.588,207.707,228.237
0.351,24.914,5.462,5.686,247.816,207.608,228.335
0.352,25.187,5.361,5.593,248.049,207.505,228.434
0.354,25.461,5.271,5.504,248.282,207.399,228.529
0.355,25.730,5.197,5.420,248.512,207.293,228.619
0.356,25.989,5.137,5.344,248.734,207.188,228.702
0.358,26.232,5.089,5.275,248.944,207.087,228.775
0.359,26.456,5.051,5.213,249.136,206.991,228.836
0.361,26.656,5.020,5.159,249.309,206.902,228.884
0.362,26.832,4.994,5.113,249.461,206.820,228.920
0.364,26.989,4.970,5.076,249.595,206.745,228.947
0.365,27.127,4.947,5.047,249.713,206.675,228.967
0.367,27.250,4.924,5.026,249.816,206.611,228.984
0.368,27.358,4.902,5.009,249.905,206.551,229.000
0.369,27.456,4.881,4.995,249.984,206.497,229.019
0.371,27.544,4.862,4.983,250.052,206.446,229.041
0.372,27.626,4.844,4.970,250.113,206.399,229.071
0.374,27.706,4.829,4.954,250.167,206.355,229.111
0.375,27.790,4.815,4.935,250.217,206.314,229.164
0.377,27.880,4.803,4.913,250.263,206.275,229.231
0.378,27.979,4.793,4.891,250.308,206.237,229.310
0.380,28.085,4.783,4.871,250.353,206.198,229.397
0.381,28.197,4.773,4.855,250.400,206.157,229.491
0.382,28.315,4.763,4.845,250.449,206.112,229.589
0.384,28.437,4.751,4.844,250.503,206.063,229.686
0.385,28.563,4.738,4.853,250.563,206.007,229.781
0.387,28.692,4.724,4.870,250.631,205.944,229.871
0.388,28.825,4.709,4.892,250.708,205.872,229.953
0.390,28.964,4.693,4.916,250.795,205.789,230.023
0.391,29.112,4.678,4.940,250.894,205.694,230.079
0.392,29.272,4.662,4.960,251.005,205.588,230.120
0.394,29.441,4.647,4.974,251.126,205.473,230.148
0.395,29.617,4.632,4.979,251.252,205.351,230.164
0.397,29.798,4.620,4.976,251.382,205.225,230.170
0.398,29.979,4.609,4.966,251.512,205.098,230.168
0.400,30.158,4.602,4.950,251.639,204.973,230.160
0.401,30.329,4.599,4.930,251.761,204.853,230.148
0.403,30.489,4.601,4.906,251.873,204.740,230.133
0.404,30.633,4.609,4.880,251.974,204.638,230.119
0.405,30.758,4.622,4.852,252.059,204.548,230.105
0.407,30.859,4.639,4.823,252.127,204.474,230.096
0.408,30.938,4.655,4.793,252.179,204.415,230.090
0.410,31.002,4.668,4.761,252.222,204.367,230.087
0.411,31.059,4.674,4.727,252.263,204.328,230.087
0.413,31.116,4.671,4.692,252.309,204.293,230.088
0.414,31.183,4.654,4.654,252.366,204.259,230.090
0.416,31.269,4.622,4.615,252.443,204.222,230.092
0.417,31.380,4.580,4.581,252.546,204.177,230.093
0.418,31.527,4.536,4.560,252.681,204.123,230.093
0.420,31.715,4.497,4.558,252.857,204.054,230.090
0.421,31.955,4.468,4.583,253.080,203.968,230.083
0.423,32.251,4.458,4.643,253.356,203.860,230.073
0.424,32.601,4.473,4.745,253.682,203.733,230.058
0.426,32.993,4.518,4.892,254.046,203.589,230.042
0.427,33.415,4.589,5.071,254.438,203.435,230.023
0.429,33.855,4.679,5.265,254.847,203.273,230.005
0.430,34.301,4.781,5.458,255.261,203.109,229.987
0.431,34.741,4.888,5.633,255.670,202.946,229.971
0.433,35.164,4.995,5.772,256.062,202.789,229.958
0.434,35.557,5.094,5.860,256.427,202.643,229.950
0.436,35.909,5.180,5.884,256.754,202.511,229.947
0.437,36.209,5.253,5.855,257.031,202.398,229.950
0.439,36.445,5.314,5.788,257.250,202.308,229.960
0.440,36.621,5.365,5.700,257.411,202.241,229.977
0.442,36.743,5.406,5.607,257.521,202.194,230.000
0.443,36.819,5.439,5.523,257.587,202.166,230.026
0.444,36.860,5.464,5.464,257.614,202.155,230.055
0.446,36.890,5.484,5.443,257.610,202.158,230.084
0.447,36.935,5.498,5.455,257.580,202.174,230.114
0.449,36.997,5.505,5.492,257.530,202.200,230.141
0.450,37.073,5.506,5.544,257.468,202.235,230.166
0.452,37.156,5.499,5.604,257.399,202.277,230.185
0.453,37.240,5.486,5.662,257.330,202.323,230.199
0.455,37.321,5.466,5.711,257.266,202.372,230.206
0.456,37.395,5.439,5.743,257.210,202.421,230.207
0.457,37.459,5.407,5.761,257.165,202.465,230.204
0.459,37.510,5.375,5.765,257.131,202.503,230.199
0.460,37.545,5.345,5.761,257.111,202.531,230.193
0.462,37.560,5.320,5.749,257.107,202.545,230.188
0.463,37.574,5.305,5.734,257.120,202.543,230.186
0.465,37.614,5.301,5.718,257.153,202.520,230.189
0.466,37.685,5.312,5.703,257.208,202.475,230.198
0.468,37.792,5.336,5.692,257.285,202.403,230.214
0.469,37.939,5.372,5.687,257.389,202.302,230.240
0.470,38.127,5.418,5.689,257.517,202.171,230.277
0.472,38.349,5.473,5.701,257.667,202.013,230.322
0.473,38.597,5.534,5.725,257.834,201.837,230.374
0.475,38.865,5.601,5.762,258.013,201.646,230.431
0.476,39.143,5.670,5.813,258.199,201.447,230.490
0.478,39.425,5.741,5.874,258.387,201.246,230.550
0.479,39.703,5.811,5.941,258.573,201.049,230.609
0.481,39.968,5.878,6.009,258.752,200.860,230.664
0.482,40.214,5.939,6.072,258.919,200.687,230.714
0.483,40.432,5.993,6.126,259.070,200.535,230.757
0.485,40.615,6.038,6.167,259.199,200.410,230.790
0.486,40.760,6.072,6.189,259.305,200.314,230.813
0.488,40.870,6.097,6.197,259.389,200.244,230.828
0.489,40.950,6.113,6.193,259.453,200.197,230.835
0.491,41.004,6.124,6.181,259.500,200.170,230.836
0.492,41.037,6.131,6.167,259.531,200.160,230.834
0.494,41.055,6.136,6.152,259.548,200.162,230.828
0.495,41.071,6.142,6.142,259.554,200.174,230.821
0.496,41.091,6.148,6.138,259.550,200.193,230.814
0.498,41.116,6.157,6.141,259.539,200.215,230.809
0.499,41.143,6.165,6.149,259.523,200.237,230.807
0.501,41.171,6.173,6.159,259.503,200.255,230.810
0.502,41.197,6.181,6.171,259.482,200.269,230.818
0.504,41.225,6.187,6.182,259.462,200.279,230.834
0.505,41.255,6.190,6.190,259.446,200.285,230.859
0.506,41.291,6.190,6.194,259.435,200.288,230.893
0.508,41.336,6.187,6.194,259.433,200.289,230.938
0.509,41.394,6.179,6.187,259.441,200.289,230.996
0.511,41.469,6.165,6.174,259.462,200.287,231.067
0.512,41.563,6.146,6.154,259.499,200.285,231.154
0.514,41.679,6.121,6.125,259.553,200.284,231.257
0.515,41.820,6.088,6.088,259.627,200.283,231.377
0.517,41.989,6.047,6.041,259.723,200.283,231.516
0.518,42.183,6.000,5.987,259.839,200.286,231.671
0.519,42.397,5.947,5.929,259.971,200.291,231.840
0.521,42.627,5.891,5.871,260.114,200.298,232.019
0.522,42.865,5.833,5.814,260.263,200.308,232.205
0.524,43.107,5.774,5.761,260.414,200.322,232.394
0.525,43.348,5.716,5.716,260.563,200.339,232.582
0.527,43.581,5.660,5.681,260.705,200.359,232.766
0.528,43.802,5.607,5.655,260.835,200.384,232.943
0.530,44.006,5.558,5.636,260.949,200.414,233.110
0.531,44.188,5.514,5.623,261.043,200.448,233.261
0.532,44.345,5.476,5.614,261.113,200.487,233.396
0.534,44.478,5.445,5.608,261.159,200.530,233.513
0.535,44.591,5.422,5.603,261.185,200.576,233.614
0.537,44.689,5.407,5.598,261.192,200.622,233.699
0.538,44.773,5.399,5.593,261.184,200.667,233.770
0.540,44.848,5.397,5.586,261.164,200.711,233.827
0.541,44.914,5.399,5.579,261.133,200.750,233.872
0.543,44.975,5.404,5.569,261.096,200.784,233.905
0.544,45.030,5.411,5.557,261.053,200.812,233.927
0.545,45.080,5.418,5.542,261.009,200.831,233.939
0.547,45.124,5.425,5.525,260.966,200.840,233.943
0.548,45.164,5.429,5.506,260.926,200.838,233.939
0.550,45.202,5.432,5.486,260.890,200.829,233.931
0.551,45.236,5.433,5.466,260.860,200.815,233.921
0.553,45.265,5.432,5.449,260.837,200.800,233.912
0.554,45.286,5.429,5.434,260.821,200.788,233.907
0.556,45.296,5.423,5.423,260.814,200.782,233.909
0.557,45.309,5.415,5.417,260.817,200.785,233.921
0.558,45.341,5.403,5.414,260.831,200.800,233.946
0.560,45.399,5.389,5.411,260.856,200.833,233.988
0.561,45.487,5.373,5.406,260.894,200.884,234.048
0.563,45.610,5.354,5.396,260.946,200.960,234.129
0.564,45.769,5.333,5.379,261.012,201.059,234.235
0.566,45.960,5.310,5.352,261.090,201.179,234.361
0.567,46.177,5.285,5.314,261.179,201.314,234.505
0.569,46.414,5.256,5.266,261.277,201.461,234.665
0.570,46.667,5.221,5.213,261.381,201.613,234.837
0.571,46.929,5.180,5.157,261.489,201.767,235.020
0.573,47.195,5.131,5.101,261.601,201.917,235.209
0.574,47.461,5.072,5.048,261.713,202.059,235.403
0.576,47.720,5.001,5.001,261.824,202.188,235.599
0.577,47.969,4.919,4.963,261.932,202.300,235.793
0.579,48.203,4.827,4.931,262.035,202.389,235.984
0.580,48.422,4.730,4.902,262.132,202.454,236.169
0.582,48.628,4.631,4.872,262.222,202.497,236.349
0.583,48.825,4.535,4.838,262.306,202.522,236.525
0.584,49.013,4.446,4.798,262.383,202.532,236.697
0.586,49.196,4.367,4.747,262.453,202.529,236.866
0.587,49.375,4.302,4.683,262.516,202.517,237.033
0.589,49.549,4.249,4.610,262.572,202.498,237.197
