"T","Distance","Radius","FreeRadius","X","Y","Z"
0.000,0.000,2.994,2.994,-36.588,119.967,159.823
0.001,0.087,3.040,3.040,-36.617,120.018,159.888
0.002,0.174,3.085,3.085,-36.646,120.069,159.951
0.004,0.258,3.130,3.130,-36.673,120.119,160.013
0.005,0.339,3.172,3.172,-36.699,120.168,160.073
0.006,0.416,3.211,3.211,-36.723,120.214,160.130
0.007,0.488,3.247,3.247,-36.744,120.257,160.183
0.008,0.554,3.279,3.279,-36.761,120.298,160.232
0.009,0.613,3.307,3.307,-36.774,120.334,160.276
0.011,0.663,3.329,3.329,-36.783,120.366,160.314
0.012,0.705,3.346,3.346,-36.787,120.393,160.346
0.013,0.737,3.359,3.359,-36.785,120.415,160.370
0.014,0.761,3.370,3.370,-36.777,120.430,160.386
0.015,0.780,3.381,3.381,-36.763,120.439,160.395
0.016,0.800,3.392,3.392,-36.744,120.442,160.398
0.018,0.824,3.406,3.406,-36.720,120.437,160.398
0.019,0.854,3.425,3.425,-36.693,120.426,160.396
0.020,0.889,3.449,3.449,-36.663,120.407,160.394
0.021,0.931,3.481,3.481,-36.632,120.380,160.394
0.022,0.978,3.519,3.519,-36.600,120.345,160.399
0.023,1.033,3.566,3.566,-36.568,120.301,160.409
0.025,1.096,3.618,3.618,-36.537,120.250,160.427
0.026,1.169,3.678,3.678,-36.508,120.189,160.455
0.027,1.253,3.744,3.744,-36.482,120.119,160.495
0.028,1.351,3.816,3.816,-36.459,120.040,160.548
0.029,1.461,3.893,3.893,-36.439,119.953,160.612
0.030,1.583,3.976,3.976,-36.417,119.859,160.687
0.032,1.713,4.063,4.063,-36.393,119.761,160.769
0.033,1.851,4.152,4.152,-36.365,119.659,160.857
0.034,1.994,4.240,4.240,-36.330,119.555,160.948
0.035,2.141,4.323,4.323,-36.285,119.450,161.041
0.036,2.291,4.399,4.399,-36.230,119.346,161.134
0.038,2.443,4.464,4.464,-36.162,119.244,161.224
0.039,2.597,4.515,4.515,-36.078,119.146,161.309
0.040,2.756,4.550,4.550,-35.976,119.054,161.388
0.041,2.920,4.566,4.566,-35.855,118.968,161.458
0.042,3.092,4.562,4.562,-35.715,118.890,161.520
0.043,3.271,4.544,4.544,-35.559,118.819,161.574
0.045,3.456,4.516,4.516,-35.392,118.756,161.622
0.046,3.645,4.482,4.482,-35.217,118.701,161.667
0.047,3.835,4.446,4.446,-35.038,118.653,161.710
0.048,4.023,4.413,4.413,-34.860,118.612,161.753
0.049,4.206,4.386,4.386,-34.685,118.579,161.798
0.050,4.382,4.370,4.370,-34.518,118.553,161.846
0.052,4.547,4.369,4.369,-34.363,118.535,161.899
0.053,4.700,4.380,4.380,-34.223,118.524,161.959
0.054,4.838,4.400,4.400,-34.103,118.520,162.028
0.055,4.964,4.427,4.427,-34.005,118.523,162.107
0.056,5.081,4.456,4.456,-33.929,118.532,162.195
0.057,5.192,4.485,4.485,-33.873,118.547,162.290
0.059,5.300,4.510,4.510,-33.833,118.566,162.389
0.060,5.407,4.528,4.528,-33.808,118.589,162.489
0.061,5.511,4.537,4.537,-33.795,118.613,162.590
0.062,5.613,4.533,4.533,-33.792,118.639,162.689
0.063,5.710,4.521,4.521,-33.796,118.664,162.782
0.064,5.801,4.501,4.501,-33.806,118.689,162.869
0.066,5.883,4.476,4.476,-33.819,118.712,162.947
0.067,5.954,4.449,4.449,-33.832,118.732,163.014
0.068,6.010,4.421,4.421,-33.844,118.748,163.066
0.069,6.051,4.396,4.396,-33.852,118.759,163.105
0.070,6.079,4.375,4.375,-33.858,118.767,163.131
0.072,6.095,4.360,4.360,-33.861,118.771,163.147
0.073,6.102,4.351,4.351,-33.861,118.773,163.153
0.074,6.104,4.348,4.348,-33.860,118.772,163.152
0.075,6.111,4.350,4.350,-33.857,118.770,163.146
0.076,6.122,4.354,4.354,-33.853,118.767,163.136
0.077,6.135,4.362,4.362,-33.848,118.763,163.125
0.079,6.149,4.370,4.370,-33.841,118.759,163.113
0.080,6.161,4.378,4.378,-33.835,118.756,163.103
0.081,6.171,4.385,4.385,-33.828,118.754,163.097
0.082,6.178,4.391,4.391,-33.821,118.754,163.096
0.083,6.185,4.395,4.395,-33.814,118.756,163.100
0.084,6.196,4.397,4.397,-33.808,118.759,163.108
0.086,6.210,4.397,4.397,-33.802,118.763,163.119
0.087,6.226,4.395,4.395,-33.796,118.767,163.133
0.088,6.243,4.392,4.392,-33.791,118.773,163.149
0.089,6.262,4.387,4.387,-33.786,118.779,163.166
0.090,6.281,4.381,4.381,-33.781,118.785,163.183
0.091,6.298,4.373,4.373,-33.777,118.791,163.200
0.093,6.315,4.364,4.364,-33.774,118.796,163.215
0.094,6.329,4.353,4.353,-33.772,118.801,163.228
0.095,6.340,4.343,4.343,-33.770,118.804,163.238
0.096,6.347,4.331,4.331,-33.769,118.807,163.245
0.097,6.352,4.320,4.320,-33.768,118.809,163.249
0.098,6.355,4.309,4.309,-33.767,118.811,163.252
0.100,6.358,4.298,4.298,-33.766,118.812,163.254
0.101,6.361,4.289,4.289,-33.764,118.814,163.255
0.102,6.365,4.281,4.281,-33.762,118.815,163.258
0.103,6.371,4.273,4.273,-33.758,118.818,163.262
0.104,6.380,4.266,4.266,-33.753,118.822,163.269
0.106,6.394,4.260,4.260,-33.746,118.827,163.279
0.107,6.412,4.253,4.253,-33.737,118.834,163.293
0.108,6.436,4.245,4.245,-33.725,118.842,163.312
0.109,6.466,4.237,4.237,-33.711,118.853,163.337
0.110,6.503,4.227,4.227,-33.694,118.866,163.367
0.111,6.547,4.216,4.216,-33.673,118.881,163.403
0.113,6.598,4.203,4.203,-33.648,118.898,163.444
0.114,6.656,4.188,4.188,-33.619,118.915,163.491
0.115,6.721,4.172,4.172,-33.585,118.935,163.543
0.116,6.792,4.155,4.155,-33.546,118.954,163.599
0.117,6.871,4.138,4.138,-33.502,118.975,163.661
0.118,6.956,4.121,4.121,-33.452,118.996,163.727
0.120,7.049,4.104,4.104,-33.396,119.017,163.797
0.121,7.149,4.088,4.088,-33.333,119.039,163.872
0.122,7.257,4.074,4.074,-33.263,119.060,163.951
0.123,7.371,4.060,4.060,-33.186,119.080,164.034
0.124,7.490,4.047,4.047,-33.105,119.100,164.119
0.125,7.612,4.035,4.035,-33.021,119.118,164.205
0.127,7.734,4.023,4.023,-32.936,119.134,164.292
0.128,7.854,4.011,4.011,-32.853,119.148,164.377
0.129,7.970,3.999,3.999,-32.773,119.160,164.459
0.130,8.078,3.985,3.985,-32.699,119.168,164.538
0.131,8.178,3.970,3.970,-32.631,119.173,164.612
0.132,8.267,3.954,3.954,-32.574,119.174,164.679
0.134,8.342,3.936,3.936,-32.528,119.171,164.739
0.135,8.403,3.917,3.917,-32.495,119.164,164.790
0.136,8.450,3.897,3.897,-32.478,119.151,164.831
0.137,8.488,3.876,3.876,-32.474,119.135,164.865
0.138,8.523,3.854,3.854,-32.478,119.116,164.895
0.140,8.559,3.830,3.830,-32.486,119.098,164.924
0.141,8.596,3.807,3.807,-32.494,119.081,164.957
0.142,8.638,3.782,3.782,-32.498,119.069,164.996
0.143,8.689,3.758,3.758,-32.493,119.062,165.047
0.144,8.756,3.735,3.735,-32.474,119.062,165.111
0.145,8.847,3.716,3.716,-32.438,119.073,165.194
0.147,8.968,3.702,3.702,-32.380,119.094,165.298
0.148,9.127,3.695,3.695,-32.295,119.129,165.428
0.149,9.329,3.697,3.696,-32.180,119.179,165.587
0.150,9.577,3.708,3.708,-32.033,119.245,165.775
0.151,9.863,3.732,3.732,-31.859,119.323,165.988
0.152,10.177,3.770,3.770,-31.665,119.412,166.219
0.154,10.510,3.819,3.819,-31.458,119.506,166.462
0.155,10.853,3.877,3.877,-31.243,119.604,166.710
0.156,11.196,3.940,3.940,-31.027,119.702,166.958
0.157,11.529,4.005,4.005,-30.817,119.796,167.199
0.158,11.844,4.069,4.069,-30.618,119.884,167.426
0.159,12.130,4.129,4.129,-30.438,119.963,167.635
0.161,12.379,4.182,4.182,-30.282,120.028,167.817
0.162,12.580,4.224,4.224,-30.157,120.077,167.967
0.163,12.726,4.253,4.253,-30.069,120.107,168.080
0.164,12.820,4.272,4.271,-30.016,120.120,168.156
0.165,12.870,4.282,4.281,-29.992,120.119,168.200
0.166,12.891,4.285,4.285,-29.991,120.108,168.217
0.168,12.914,4.284,4.284,-30.006,120.091,168.214
0.169,12.951,4.282,4.281,-30.032,120.072,168.194
0.170,12.997,4.279,4.278,-30.062,120.055,168.163
0.171,13.045,4.278,4.278,-30.089,120.045,168.126
0.172,13.087,4.282,4.282,-30.109,120.045,168.088
0.174,13.123,4.291,4.292,-30.113,120.058,168.055
0.175,13.166,4.307,4.309,-30.097,120.090,168.031
0.176,13.236,4.330,4.332,-30.053,120.143,168.022
0.177,13.343,4.359,4.362,-29.979,120.221,168.031
0.178,13.486,4.397,4.399,-29.878,120.318,168.055
0.179,13.656,4.442,4.445,-29.756,120.432,168.092
0.181,13.849,4.497,4.498,-29.616,120.556,168.138
0.182,14.056,4.560,4.560,-29.465,120.688,168.190
0.183,14.269,4.633,4.631,-29.308,120.821,168.244
0.184,14.483,4.712,4.707,-29.148,120.953,168.299
0.185,14.690,4.795,4.785,-28.991,121.077,168.349
0.186,14.881,4.877,4.863,-28.843,121.191,168.394
0.188,15.052,4.956,4.935,-28.708,121.288,168.428
0.189,15.194,5.028,5.000,-28.591,121.366,168.449
0.190,15.302,5.089,5.052,-28.497,121.419,168.455
0.191,15.381,5.136,5.090,-28.425,121.450,168.444
0.192,15.442,5.166,5.108,-28.372,121.465,168.419
0.193,15.495,5.178,5.107,-28.334,121.470,168.382
0.195,15.549,5.175,5.091,-28.308,121.472,168.334
0.196,15.609,5.161,5.064,-28.290,121.477,168.278
0.197,15.675,5.140,5.032,-28.275,121.492,168.215
0.198,15.751,5.115,4.997,-28.261,121.522,168.147
0.199,15.840,5.092,4.966,-28.243,121.574,168.077
0.200,15.951,5.072,4.942,-28.218,121.655,168.005
0.202,16.092,5.061,4.931,-28.182,121.771,167.934
0.203,16.270,5.061,4.936,-28.131,121.928,167.866
0.204,16.492,5.074,4.958,-28.064,122.130,167.803
0.205,16.753,5.098,4.994,-27.981,122.370,167.743
0.206,17.044,5.130,5.042,-27.886,122.639,167.688
0.208,17.358,5.171,5.100,-27.781,122.931,167.636
0.209,17.687,5.217,5.165,-27.670,123.237,167.588
0.210,18.022,5.268,5.235,-27.554,123.548,167.544
0.211,18.355,5.322,5.307,-27.437,123.857,167.502
0.212,18.678,5.378,5.379,-27.321,124.156,167.463
0.213,18.982,5.434,5.449,-27.210,124.436,167.427
0.215,19.258,5.489,5.515,-27.105,124.689,167.394
0.216,19.499,5.541,5.577,-27.009,124.908,167.362
0.217,19.696,5.589,5.632,-26.926,125.084,167.333
0.218,19.848,5.631,5.680,-26.856,125.217,167.305
0.219,19.961,5.668,5.719,-26.798,125.310,167.280
0.220,20.039,5.696,5.749,-26.751,125.368,167.257
0.222,20.089,5.715,5.767,-26.714,125.396,167.238
0.223,20.121,5.723,5.773,-26.687,125.398,167.222
0.224,20.150,5.721,5.767,-26.668,125.379,167.210
0.225,20.189,5.711,5.752,-26.657,125.343,167.201
0.226,20.238,5.695,5.730,-26.653,125.294,167.198
0.227,20.295,5.674,5.703,-26.654,125.238,167.199
0.229,20.355,5.652,5.674,-26.661,125.178,167.205
0.230,20.416,5.631,5.645,-26.672,125.119,167.216
0.231,20.475,5.612,5.619,-26.686,125.065,167.233
0.232,20.527,5.598,5.599,-26.700,125.018,167.254
0.233,20.572,5.590,5.585,-26.711,124.981,167.276
0.234,20.607,5.589,5.579,-26.716,124.955,167.299
0.236,20.632,5.592,5.580,-26.712,124.942,167.320
0.237,20.655,5.600,5.585,-26.697,124.945,167.337
0.238,20.693,5.610,5.595,-26.666,124.965,167.348
0.239,20.755,5.622,5.608,-26.618,125.004,167.351
0.240,20.847,5.634,5.624,-26.549,125.064,167.345
0.242,20.973,5.645,5.640,-26.455,125.147,167.328
0.243,21.137,5.655,5.656,-26.335,125.255,167.297
0.244,21.344,5.660,5.672,-26.185,125.390,167.251
0.245,21.592,5.662,5.684,-26.007,125.551,167.190
0.246,21.872,5.660,5.693,-25.806,125.732,167.117
0.247,22.178,5.652,5.697,-25.587,125.929,167.035
0.249,22.502,5.638,5.693,-25.355,126.138,166.945
0.250,22.836,5.617,5.682,-25.118,126.353,166.852
0.251,23.173,5.589,5.660,-24.879,126.570,166.757
0.252,23.503,5.553,5.627,-24.644,126.784,166.664
0.253,23.821,5.509,5.582,-24.420,126.990,166.574
0.254,24.118,5.457,5.526,-24.211,127.184,166.491
0.256,24.387,5.400,5.462,-24.023,127.361,166.418
0.257,24.619,5.343,5.394,-23.861,127.516,166.356
0.258,24.810,5.286,5.327,-23.730,127.646,166.309
0.259,24.961,5.234,5.263,-23.627,127.752,166.274
0.260,25.078,5.189,5.207,-23.550,127.837,166.252
0.261,25.165,5.153,5.162,-23.496,127.903,166.240
0.263,25.227,5.131,5.131,-23.461,127.954,166.237
0.264,25.270,5.124,5.119,-23.441,127.993,166.242
0.265,25.302,5.129,5.121,-23.434,128.022,166.252
0.266,25.329,5.145,5.135,-23.437,128.044,166.268
0.267,25.357,5.167,5.157,-23.445,128.062,166.287
0.268,25.386,5.192,5.184,-23.457,128.079,166.307
0.270,25.416,5.218,5.212,-23.468,128.097,166.328
0.271,25.447,5.241,5.238,-23.476,128.119,166.349
0.272,25.480,5.258,5.257,-23.479,128.147,166.367
0.273,25.516,5.267,5.267,-23.478,128.179,166.384
0.274,25.554,5.265,5.266,-23.473,128.213,166.398
0.275,25.593,5.255,5.256,-23.465,128.249,166.411
0.277,25.631,5.239,5.240,-23.456,128.285,166.422
0.278,25.668,5.219,5.219,-23.445,128.319,166.431
0.279,25.703,5.196,5.196,-23.433,128.351,166.437
0.280,25.733,5.173,5.172,-23.421,128.378,166.442
0.281,25.758,5.151,5.150,-23.409,128.401,166.444
0.283,25.777,5.133,5.132,-23.399,128.416,166.444
0.284,25.788,5.120,5.121,-23.391,128.424,166.442
0.285,25.795,5.112,5.114,-23.386,128.423,166.437
0.286,25.806,5.108,5.113,-23.383,128.414,166.431
0.287,25.820,5.108,5.114,-23.381,128.402,166.425
0.288,25.835,5.109,5.117,-23.379,128.388,166.420
0.290,25.848,5.112,5.120,-23.377,128.375,166.417
0.291,25.858,5.116,5.123,-23.374,128.366,166.417
0.292,25.865,5.118,5.123,-23.369,128.363,166.421
0.293,25.879,5.119,5.119,-23.361,128.370,166.431
0.294,25.906,5.118,5.110,-23.350,128.388,166.447
0.295,25.949,5.112,5.097,-23.334,128.420,166.471
0.297,26.012,5.102,5.079,-23.314,128.470,166.504
0.298,26.097,5.086,5.057,-23.287,128.539,166.546
0.299,26.206,5.062,5.030,-23.254,128.629,166.599
0.300,26.335,5.030,5.000,-23.216,128.735,166.659
0.301,26.480,4.989,4.966,-23.173,128.857,166.727
0.302,26.640,4.937,4.927,-23.127,128.991,166.800
0.304,26.810,4.874,4.886,-23.079,129.134,166.878
0.305,26.986,4.799,4.841,-23.028,129.283,166.958
0.306,27.168,4.717,4.794,-22.977,129.437,167.039
0.307,27.349,4.629,4.746,-22.925,129.591,167.120
0.308,27.529,4.540,4.697,-22.874,129.744,167.199
0.309,27.702,4.450,4.648,-22.825,129.892,167.275
0.311,27.867,4.364,4.601,-22.778,130.034,167.346
0.312,28.021,4.284,4.555,-22.734,130.165,167.411
0.313,28.163,4.212,4.512,-22.692,130.288,167.472
0.314,28.297,4.152,4.472,-22.651,130.401,167.529
0.315,28.423,4.103,4.434,-22.610,130.506,167.585
0.317,28.545,4.063,4.400,-22.568,130.605,167.642
0.318,28.663,4.032,4.366,-22.522,130.697,167.702
0.319,28.781,4.007,4.333,-22.473,130.783,167.766
0.320,28.902,3.988,4.301,-22.418,130.865,167.836
0.321,29.028,3.973,4.267,-22.357,130.942,167.913
0.322,29.162,3.962,4.232,-22.288,131.016,168.001
0.324,29.307,3.952,4.196,-22.210,131.088,168.100
0.325,29.466,3.944,4.156,-22.121,131.158,168.213
0.326,29.641,3.936,4.116,-22.022,131.226,168.339
0.327,29.829,3.930,4.077,-21.914,131.293,168.477
0.328,30.028,3.925,4.039,-21.799,131.359,168.626
0.329,30.236,3.923,4.004,-21.678,131.422,168.784
0.331,30.451,3.922,3.974,-21.555,131.483,168.948
0.332,30.670,3.923,3.949,-21.429,131.541,169.117
0.333,30.891,3.926,3.932,-21.303,131.597,169.290
0.334,31.111,3.932,3.923,-21.179,131.650,169.465
0.335,31.329,3.940,3.922,-21.058,131.700,169.639
0.336,31.541,3.950,3.927,-20.943,131.746,169.811
0.338,31.746,3.961,3.938,-20.835,131.788,169.980
0.339,31.941,3.972,3.952,-20.735,131.827,170.143
0.340,32.127,3.984,3.968,-20.643,131.861,170.301
0.341,32.304,3.995,3.984,-20.560,131.893,170.454
0.342,32.474,4.004,4.000,-20.483,131.922,170.602
0.343,32.637,4.013,4.013,-20.413,131.949,170.747
0.345,32.794,4.019,4.023,-20.348,131.973,170.889
0.346,32.947,4.024,4.029,-20.289,131.997,171.028
0.347,33.096,4.028,4.034,-20.233,132.019,171.164
0.348,33.243,4.033,4.039,-20.181,132.041,171.299
0.349,33.387,4.038,4.043,-20.132,132.062,171.433
0.351,33.529,4.044,4.048,-20.085,132.084,171.566
0.352,33.672,4.053,4.055,-20.040,132.107,171.699
0.353,33.814,4.065,4.066,-19.995,132.130,171.832
0.354,33.957,4.080,4.080,-19.952,132.155,171.966
0.355,34.101,4.100,4.099,-19.910,132.180,172.101
0.356,34.246,4.125,4.123,-19.869,132.206,172.239
0.358,34.394,4.154,4.153,-19.830,132.233,172.378
0.359,34.543,4.190,4.188,-19.792,132.261,172.520
0.360,34.695,4.231,4.230,-19.756,132.289,172.665
0.361,34.850,4.279,4.278,-19.723,132.318,172.813
0.362,35.009,4.334,4.333,-19.691,132.348,172.966
0.363,35.172,4.396,4.396,-19.662,132.378,173.123
0.365,35.339,4.466,4.466,-19.635,132.408,173.286
0.366,35.511,4.542,4.542,-19.611,132.438,173.453
0.367,35.686,4.622,4.622,-19.589,132.469,173.624
0.368,35.862,4.703,4.703,-19.571,132.500,173.796
0.369,36.036,4.783,4.783,-19.555,132.530,173.967
0.370,36.206,4.860,4.860,-19.544,132.560,174.135
0.372,36.370,4.931,4.931,-19.535,132.589,174.296
0.373,36.525,4.994,4.994,-19.531,132.618,174.448
0.374,36.669,5.047,5.047,-19.531,132.645,174.589
0.375,36.799,5.088,5.089,-19.535,132.671,174.716
0.376,36.913,5.119,5.120,-19.543,132.696,174.828
0.377,37.010,5.142,5.143,-19.556,132.719,174.920
0.379,37.087,5.158,5.160,-19.574,132.741,174.992
0.380,37.145,5.169,5.171,-19.597,132.761,175.042
0.381,37.190,5.177,5.179,-19.620,132.780,175.075
0.382,37.227,5.183,5.185,-19.643,132.802,175.094
0.383,37.259,5.190,5.191,-19.661,132.826,175.104
0.385,37.290,5.199,5.198,-19.673,132.855,175.109
0.386,37.325,5.211,5.208,-19.675,132.890,175.113
0.387,37.370,5.226,5.221,-19.664,132.932,175.121
0.388,37.430,5.244,5.237,-19.638,132.984,175.136
0.389,37.511,5.264,5.257,-19.593,133.046,175.164
0.390,37.620,5.288,5.280,-19.528,133.121,175.207
0.392,37.761,5.315,5.308,-19.438,133.210,175.271
0.393,37.940,5.345,5.340,-19.322,133.313,175.360
0.394,38.153,5.378,5.378,-19.182,133.430,175.471
0.395,38.395,5.414,5.420,-19.023,133.558,175.600
0.396,38.658,5.453,5.466,-18.849,133.693,175.744
0.397,38.935,5.497,5.517,-18.665,133.833,175.897
0.399,39.220,5.544,5.569,-18.476,133.976,176.056
0.400,39.505,5.595,5.624,-18.287,134.117,176.216
0.401,39.784,5.652,5.679,-18.102,134.254,176.372
0.402,40.048,5.712,5.735,-17.927,134.384,176.521
0.403,40.292,5.779,5.790,-17.765,134.504,176.659
0.404,40.508,5.850,5.843,-17.622,134.611,176.780
0.406,40.689,5.926,5.893,-17.502,134.703,176.880
0.407,40.832,6.003,5.940,-17.408,134.777,176.958
0.408,40.938,6.078,5.983,-17.339,134.835,177.013
0.409,41.011,6.148,6.020,-17.291,134.877,177.049
0.410,41.056,6.210,6.052,-17.262,134.907,177.068
0.411,41.078,6.260,6.077,-17.250,134.924,177.070
0.413,41.091,6.296,6.094,-17.251,134.931,177.059
0.414,41.117,6.313,6.103,-17.263,134.929,177.036
0.415,41.157,6.310,6.103,-17.283,134.919,177.003
0.416,41.208,6.289,6.095,-17.309,134.903,176.962
0.417,41.266,6.253,6.081,-17.338,134.883,176.916
0.419,41.329,6.206,6.062,-17.368,134.860,176.866
0.420,41.393,6.154,6.042,-17.396,134.835,176.813
0.421,41.455,6.100,6.021,-17.420,134.810,176.762
0.422,41.512,6.049,6.001,-17.440,134.787,176.715
0.423,41.560,6.005,5.985,-17.456,134.767,176.674
0.424,41.596,5.972,5.975,-17.468,134.752,176.643
0.426,41.617,5.954,5.971,-17.473,134.742,176.625
0.427,41.620,5.948,5.973,-17.473,134.741,176.622
0.428,41.640,5.953,5.982,-17.466,134.749,176.638
0.429,41.684,5.968,5.995,-17.453,134.769,176.676
0.430,41.758,5.990,6.013,-17.432,134.801,176.739
0.431,41.863,6.018,6.034,-17.403,134.847,176.829
0.433,42.004,6.050,6.059,-17.366,134.909,176.950
0.434,42.182,6.084,6.086,-17.320,134.987,177.103
0.435,42.390,6.117,6.115,-17.267,135.079,177.282
0.436,42.622,6.150,6.145,-17.208,135.181,177.482
0.437,42.872,6.182,6.176,-17.146,135.292,177.697
0.438,43.132,6.212,6.206,-17.081,135.407,177.922
0.440,43.397,6.240,6.235,-17.015,135.524,178.149
0.441,43.658,6.266,6.262,-16.950,135.640,178.375
0.442,43.910,6.289,6.287,-16.888,135.752,178.592
0.443,44.146,6.310,6.309,-16.829,135.856,178.795
0.444,44.359,6.327,6.327,-16.775,135.951,178.978
0.445,44.542,6.340,6.341,-16.729,136.032,179.135
0.447,44.689,6.351,6.351,-16.691,136.097,179.261
0.448,44.800,6.358,6.357,-16.662,136.146,179.356
0.449,44.879,6.364,6.362,-16.640,136.181,179.424
0.450,44.932,6.367,6.364,-16.625,136.204,179.469
0.451,44.962,6.369,6.366,-16.617,136.217,179.495
0.453,44.976,6.370,6.367,-16.613,136.222,179.507
0.454,44.979,6.371,6.369,-16.614,136.220,179.510
0.455,44.987,6.372,6.373,-16.619,136.214,179.506
0.456,44.999,6.373,6.378,-16.626,136.206,179.501
0.457,45.011,6.375,6.385,-16.635,136.198,179.498
0.458,45.024,6.378,6.394,-16.645,136.191,179.502
0.460,45.043,6.381,6.403,-16.655,136.188,179.518
0.461,45.074,6.386,6.413,-16.664,136.190,179.547
0.462,45.118,6.392,6.424,-16.673,136.197,179.590
0.463,45.173,6.399,6.436,-16.680,136.208,179.644
0.464,45.239,6.408,6.447,-16.686,136.221,179.708
0.465,45.312,6.419,6.458,-16.690,136.237,179.780
0.467,45.392,6.431,6.469,-16.693,136.253,179.857
0.468,45.476,6.445,6.480,-16.694,136.271,179.939
0.469,45.562,6.459,6.490,-16.693,136.288,180.024
0.470,45.650,6.474,6.499,-16.689,136.303,180.110
0.471,45.736,6.489,6.508,-16.683,136.317,180.195
0.472,45.819,6.503,6.516,-16.674,136.327,180.277
0.474,45.898,6.517,6.523,-16.662,136.334,180.355
0.475,45.973,6.530,6.529,-16.648,136.338,180.429
0.476,46.045,6.541,6.535,-16.631,136.339,180.499
0.477,46.115,6.551,6.539,-16.614,136.340,180.566
0.478,46.184,6.560,6.544,-16.595,136.341,180.633
