"T","Distance","Radius","FreeRadius","X","Y","Z"
0.000,0.000,3.368,3.368,217.899,189.049,181.962
0.001,0.188,3.451,3.451,218.003,189.000,182.111
0.003,0.374,3.532,3.532,218.107,188.952,182.258
0.004,0.557,3.610,3.610,218.209,188.905,182.402
0.005,0.735,3.684,3.684,218.308,188.860,182.542
0.007,0.906,3.751,3.751,218.405,188.818,182.678
0.008,1.070,3.811,3.811,218.498,188.779,182.806
0.009,1.223,3.861,3.861,218.586,188.744,182.927
0.011,1.366,3.901,3.901,218.669,188.713,183.039
0.012,1.496,3.930,3.930,218.746,188.687,183.140
0.013,1.611,3.949,3.949,218.815,188.667,183.230
0.014,1.711,3.961,3.961,218.878,188.654,183.307
0.016,1.793,3.967,3.967,218.932,188.647,183.369
0.017,1.859,3.969,3.969,218.978,188.648,183.417
0.018,1.914,3.968,3.968,219.018,188.654,183.452
0.020,1.960,3.968,3.968,219.055,188.665,183.478
0.021,2.002,3.969,3.969,219.091,188.679,183.495
0.022,2.045,3.972,3.972,219.129,188.695,183.507
0.024,2.091,3.977,3.977,219.171,188.712,183.516
0.025,2.142,3.985,3.985,219.219,188.727,183.524
0.026,2.202,3.995,3.995,219.276,188.741,183.532
0.028,2.273,4.008,4.008,219.345,188.752,183.544
0.029,2.357,4.024,4.024,219.428,188.758,183.562
0.030,2.460,4.043,4.043,219.527,188.757,183.588
0.032,2.582,4.065,4.065,219.644,188.750,183.623
0.033,2.726,4.090,4.090,219.779,188.735,183.669
0.034,2.885,4.120,4.120,219.928,188.712,183.722
0.036,3.058,4.153,4.153,220.088,188.682,183.781
0.037,3.241,4.191,4.191,220.255,188.644,183.843
0.038,3.429,4.235,4.235,220.426,188.599,183.908
0.039,3.619,4.283,4.283,220.597,188.546,183.972
0.041,3.808,4.338,4.338,220.765,188.486,184.035
0.042,3.993,4.398,4.398,220.927,188.419,184.093
0.043,4.170,4.463,4.463,221.078,188.344,184.145
0.045,4.336,4.531,4.531,221.216,188.263,184.189
0.046,4.490,4.600,4.600,221.337,188.174,184.223
0.047,4.632,4.670,4.670,221.439,188.078,184.246
0.049,4.763,4.739,4.739,221.522,187.977,184.259
0.050,4.887,4.806,4.806,221.590,187.873,184.264
0.051,5.006,4.869,4.869,221.644,187.768,184.265
0.053,5.118,4.928,4.928,221.688,187.664,184.262
0.054,5.225,4.981,4.981,221.723,187.563,184.260
0.055,5.325,5.028,5.028,221.752,187.468,184.260
0.057,5.417,5.068,5.068,221.778,187.379,184.265
0.058,5.501,5.100,5.100,221.803,187.300,184.277
0.059,5.576,5.123,5.123,221.830,187.233,184.298
0.061,5.647,5.136,5.136,221.861,187.179,184.332
0.062,5.719,5.139,5.139,221.898,187.141,184.380
0.063,5.800,5.133,5.133,221.944,187.119,184.444
0.064,5.894,5.120,5.120,221.996,187.111,184.520
0.066,5.999,5.102,5.102,222.054,187.117,184.608
0.067,6.114,5.081,5.081,222.116,187.133,184.704
0.068,6.237,5.059,5.059,222.181,187.157,184.805
0.070,6.364,5.037,5.037,222.248,187.188,184.909
0.071,6.494,5.017,5.017,222.314,187.224,185.014
0.072,6.622,5.001,5.001,222.380,187.262,185.117
0.074,6.745,4.988,4.988,222.443,187.301,185.216
0.075,6.860,4.978,4.978,222.502,187.338,185.307
0.076,6.963,4.971,4.971,222.556,187.371,185.389
0.078,7.052,4.966,4.966,222.603,187.399,185.459
0.079,7.126,4.963,4.963,222.644,187.421,185.516
0.080,7.185,4.962,4.962,222.678,187.437,185.562
0.082,7.232,4.963,4.963,222.707,187.449,185.598
0.083,7.269,4.964,4.964,222.730,187.456,185.625
0.084,7.296,4.966,4.966,222.749,187.459,185.644
0.086,7.315,4.969,4.969,222.764,187.459,185.657
0.087,7.329,4.972,4.972,222.775,187.457,185.664
0.088,7.339,4.975,4.975,222.784,187.454,185.668
0.089,7.347,4.978,4.978,222.790,187.449,185.670
0.091,7.355,4.980,4.980,222.794,187.443,185.669
0.092,7.361,4.982,4.982,222.798,187.438,185.669
0.093,7.366,4.983,4.983,222.801,187.434,185.670
0.095,7.371,4.983,4.983,222.803,187.430,185.672
0.096,7.375,4.983,4.983,222.805,187.427,185.674
0.097,7.379,4.982,4.982,222.807,187.425,185.677
0.099,7.382,4.982,4.982,222.808,187.424,185.680
0.100,7.385,4.981,4.981,222.809,187.424,185.682
0.101,7.387,4.980,4.980,222.811,187.424,185.684
0.103,7.389,4.979,4.979,222.812,187.426,185.685
0.104,7.391,4.978,4.978,222.813,187.428,185.684
0.105,7.395,4.977,4.977,222.814,187.430,185.681
0.107,7.401,4.976,4.976,222.816,187.433,185.677
0.108,7.409,4.975,4.975,222.818,187.437,185.669
0.109,7.420,4.974,4.974,222.820,187.442,185.660
0.111,7.433,4.973,4.973,222.824,187.446,185.648
0.112,7.447,4.973,4.973,222.832,187.451,185.637
0.113,7.464,4.972,4.972,222.843,187.455,185.627
0.114,7.483,4.969,4.969,222.861,187.457,185.618
0.116,7.508,4.964,4.964,222.885,187.459,185.613
0.117,7.541,4.956,4.956,222.918,187.458,185.613
0.118,7.584,4.943,4.943,222.961,187.456,185.618
0.120,7.639,4.925,4.925,223.014,187.451,185.630
0.121,7.708,4.899,4.899,223.080,187.443,185.650
0.122,7.793,4.867,4.867,223.159,187.431,185.680
0.124,7.897,4.828,4.828,223.253,187.416,185.719
0.125,8.019,4.784,4.784,223.363,187.397,185.769
0.126,8.159,4.736,4.736,223.488,187.374,185.829
0.128,8.318,4.686,4.686,223.630,187.348,185.896
0.129,8.494,4.635,4.635,223.787,187.319,185.969
0.130,8.687,4.585,4.585,223.961,187.287,186.048
0.132,8.897,4.536,4.536,224.151,187.252,186.131
0.133,9.124,4.491,4.491,224.357,187.215,186.216
0.134,9.366,4.453,4.453,224.580,187.176,186.302
0.136,9.624,4.422,4.422,224.820,187.135,186.388
0.137,9.898,4.403,4.403,225.077,187.093,186.473
0.138,10.187,4.398,4.398,225.351,187.049,186.555
0.139,10.492,4.408,4.408,225.641,187.004,186.633
0.141,10.808,4.437,4.437,225.946,186.958,186.707
0.142,11.133,4.487,4.487,226.259,186.911,186.777
0.143,11.460,4.556,4.556,226.577,186.865,186.844
0.145,11.787,4.642,4.641,226.894,186.819,186.907
0.146,12.108,4.738,4.738,227.205,186.774,186.967
0.147,12.418,4.841,4.840,227.507,186.730,187.024
0.149,12.713,4.946,4.945,227.794,186.687,187.079
0.150,12.989,5.048,5.048,228.062,186.647,187.132
0.151,13.241,5.145,5.145,228.306,186.608,187.182
0.153,13.465,5.230,5.230,228.521,186.572,187.232
0.154,13.655,5.305,5.305,228.703,186.539,187.279
0.155,13.811,5.369,5.369,228.848,186.510,187.326
0.157,13.934,5.422,5.422,228.960,186.483,187.370
0.158,14.029,5.466,5.466,229.042,186.459,187.412
0.159,14.101,5.500,5.500,229.098,186.438,187.451
0.161,14.154,5.526,5.526,229.133,186.420,187.487
0.162,14.193,5.544,5.544,229.151,186.405,187.518
0.163,14.222,5.554,5.554,229.154,186.391,187.544
0.164,14.246,5.558,5.558,229.149,186.380,187.564
0.166,14.266,5.558,5.557,229.137,186.371,187.578
0.167,14.283,5.555,5.554,229.124,186.363,187.585
0.168,14.295,5.550,5.549,229.114,186.358,187.584
0.170,14.306,5.546,5.545,229.109,186.354,187.575
0.171,14.323,5.543,5.543,229.113,186.350,187.559
0.172,14.348,5.543,5.544,229.124,186.347,187.537
0.174,14.380,5.547,5.548,229.142,186.343,187.510
0.175,14.417,5.552,5.555,229.165,186.336,187.482
0.176,14.457,5.559,5.562,229.192,186.326,187.454
0.178,14.500,5.565,5.569,229.222,186.312,187.428
0.179,14.544,5.570,5.573,229.255,186.293,187.405
0.180,14.589,5.572,5.575,229.289,186.267,187.389
0.182,14.637,5.570,5.571,229.323,186.234,187.381
0.183,14.690,5.564,5.561,229.356,186.193,187.383
0.184,14.752,5.552,5.546,229.387,186.142,187.396
0.186,14.824,5.536,5.526,229.415,186.080,187.424
0.187,14.911,5.516,5.503,229.440,186.009,187.465
0.188,15.009,5.493,5.479,229.463,185.928,187.517
0.189,15.120,5.466,5.453,229.485,185.840,187.581
0.191,15.241,5.436,5.428,229.505,185.746,187.654
0.192,15.370,5.403,5.405,229.524,185.646,187.734
0.193,15.507,5.369,5.384,229.543,185.542,187.821
0.195,15.649,5.333,5.366,229.563,185.436,187.913
0.196,15.795,5.294,5.351,229.583,185.327,188.008
0.197,15.943,5.254,5.339,229.605,185.218,188.105
0.199,16.090,5.211,5.329,229.630,185.110,188.203
0.200,16.237,5.167,5.322,229.656,185.004,188.299
0.201,16.380,5.121,5.318,229.687,184.900,188.394
0.203,16.520,5.073,5.317,229.723,184.800,188.485
0.204,16.657,5.023,5.317,229.768,184.703,188.571
0.205,16.791,4.971,5.314,229.824,184.611,188.650
0.207,16.925,4.916,5.304,229.893,184.522,188.722
0.208,17.060,4.859,5.283,229.979,184.438,188.785
0.209,17.201,4.799,5.247,230.084,184.359,188.837
0.211,17.353,4.735,5.192,230.211,184.285,188.877
0.212,17.521,4.668,5.114,230.361,184.217,188.904
0.213,17.710,4.598,5.010,230.539,184.154,188.916
0.214,17.925,4.525,4.885,230.746,184.097,188.912
0.216,18.170,4.452,4.747,230.985,184.047,188.891
0.217,18.448,4.381,4.604,231.257,184.002,188.853
0.218,18.753,4.314,4.465,231.555,183.962,188.804
0.220,19.080,4.253,4.338,231.875,183.926,188.748
0.221,19.424,4.200,4.232,232.213,183.893,188.691
0.222,19.778,4.157,4.154,232.561,183.861,188.636
0.224,20.137,4.125,4.110,232.916,183.829,188.591
0.225,20.496,4.103,4.095,233.272,183.797,188.559
0.226,20.850,4.090,4.103,233.624,183.762,188.546
0.228,21.195,4.084,4.129,233.967,183.723,188.557
0.229,21.528,4.084,4.166,234.295,183.681,188.596
0.230,21.849,4.087,4.209,234.603,183.632,188.669
0.232,22.159,4.093,4.251,234.887,183.577,188.781
0.233,22.462,4.100,4.286,235.144,183.515,188.930
0.234,22.763,4.107,4.312,235.376,183.448,189.110
0.236,23.062,4.115,4.330,235.582,183.379,189.315
0.237,23.360,4.124,4.341,235.764,183.308,189.540
0.238,23.654,4.134,4.347,235.923,183.237,189.777
0.239,23.942,4.145,4.348,236.059,183.168,190.021
0.241,24.220,4.159,4.348,236.173,183.102,190.266
0.242,24.484,4.174,4.346,236.265,183.041,190.506
0.243,24.729,4.192,4.344,236.337,182.987,190.734
0.245,24.952,4.212,4.343,236.390,182.941,190.945
0.246,25.146,4.233,4.342,236.423,182.905,191.133
0.247,25.308,4.255,4.342,236.438,182.881,191.292
0.249,25.441,4.275,4.341,236.438,182.866,191.424
0.250,25.548,4.294,4.341,236.425,182.858,191.531
0.251,25.635,4.310,4.340,236.403,182.856,191.615
0.253,25.705,4.323,4.339,236.375,182.858,191.679
0.254,25.761,4.331,4.338,236.344,182.861,191.725
0.255,25.805,4.336,4.337,236.313,182.863,191.756
0.257,25.839,4.338,4.336,236.284,182.862,191.774
0.258,25.863,4.339,4.335,236.262,182.857,191.782
0.259,25.881,4.338,4.334,236.249,182.845,191.783
0.261,25.903,4.336,4.334,236.248,182.823,191.778
0.262,25.940,4.336,4.335,236.262,182.791,191.770
0.263,25.995,4.336,4.337,236.293,182.746,191.761
0.264,26.069,4.338,4.340,236.341,182.689,191.754
0.266,26.162,4.342,4.344,236.404,182.622,191.751
0.267,26.271,4.347,4.349,236.481,182.545,191.752
0.268,26.396,4.354,4.356,236.572,182.458,191.760
0.270,26.536,4.362,4.363,236.674,182.364,191.777
0.271,26.691,4.371,4.372,236.788,182.263,191.805
0.272,26.860,4.381,4.381,236.912,182.155,191.845
0.274,27.043,4.393,4.392,237.045,182.042,191.899
0.275,27.239,4.405,4.405,237.185,181.925,191.969
0.276,27.449,4.421,4.420,237.333,181.804,192.058
0.278,27.674,4.440,4.440,237.486,181.680,192.166
0.279,27.912,4.464,4.464,237.644,181.555,192.293
0.280,28.160,4.494,4.494,237.805,181.429,192.435
0.282,28.414,4.531,4.531,237.966,181.306,192.587
0.283,28.670,4.575,4.575,238.126,181.185,192.747
0.284,28.925,4.628,4.628,238.282,181.068,192.909
0.286,29.173,4.687,4.687,238.434,180.957,193.071
0.287,29.410,4.749,4.749,238.579,180.853,193.228
0.288,29.634,4.811,4.811,238.715,180.758,193.377
0.289,29.838,4.871,4.871,238.841,180.673,193.513
0.291,30.018,4.926,4.926,238.954,180.600,193.633
0.292,30.171,4.973,4.973,239.053,180.539,193.733
0.293,30.294,5.010,5.010,239.137,180.493,193.810
0.295,30.388,5.036,5.036,239.205,180.459,193.865
0.296,30.457,5.052,5.052,239.261,180.436,193.900
0.297,30.508,5.060,5.060,239.305,180.422,193.920
0.299,30.546,5.063,5.062,239.341,180.413,193.926
0.300,30.575,5.062,5.061,239.370,180.409,193.923
0.301,30.601,5.059,5.058,239.393,180.406,193.912
0.303,30.626,5.056,5.056,239.413,180.403,193.897
0.304,30.651,5.055,5.055,239.432,180.398,193.881
0.305,30.677,5.056,5.057,239.452,180.387,193.867
0.307,30.707,5.061,5.062,239.474,180.370,193.859
0.308,30.745,5.069,5.071,239.501,180.344,193.858
0.309,30.795,5.081,5.083,239.534,180.307,193.866
0.311,30.857,5.097,5.099,239.572,180.261,193.885
0.312,30.930,5.118,5.119,239.615,180.208,193.911
0.313,31.013,5.143,5.143,239.662,180.149,193.945
0.314,31.103,5.172,5.171,239.713,180.086,193.986
0.316,31.199,5.205,5.202,239.766,180.021,194.032
0.317,31.299,5.240,5.235,239.822,179.955,194.082
0.318,31.401,5.274,5.269,239.879,179.890,194.136
0.320,31.503,5.307,5.302,239.937,179.828,194.192
0.321,31.604,5.336,5.334,239.996,179.770,194.250
0.322,31.701,5.360,5.362,240.054,179.718,194.308
0.324,31.794,5.377,5.385,240.112,179.674,194.366
0.325,31.882,5.387,5.404,240.168,179.638,194.423
0.326,31.966,5.391,5.417,240.223,179.609,194.479
0.328,32.047,5.391,5.428,240.278,179.586,194.534
0.329,32.125,5.388,5.434,240.333,179.568,194.587
0.330,32.201,5.384,5.439,240.387,179.554,194.638
0.332,32.276,5.381,5.441,240.442,179.542,194.688
0.333,32.350,5.379,5.442,240.497,179.533,194.736
0.334,32.423,5.381,5.443,240.554,179.523,194.782
0.336,32.495,5.386,5.443,240.611,179.514,194.825
0.337,32.568,5.394,5.443,240.670,179.503,194.866
0.338,32.641,5.405,5.444,240.730,179.489,194.905
0.339,32.716,5.418,5.446,240.793,179.472,194.941
0.341,32.791,5.432,5.450,240.857,179.451,194.975
0.342,32.867,5.447,5.455,240.922,179.428,195.007
0.343,32.943,5.462,5.462,240.987,179.403,195.036
0.345,33.018,5.476,5.472,241.051,179.376,195.065
0.346,33.091,5.491,5.483,241.114,179.349,195.092
0.347,33.163,5.504,5.496,241.174,179.322,195.119
0.349,33.231,5.517,5.510,241.231,179.296,195.146
0.350,33.296,5.529,5.524,241.285,179.271,195.172
0.351,33.356,5.540,5.537,241.334,179.248,195.199
0.353,33.411,5.550,5.549,241.378,179.229,195.226
0.354,33.461,5.560,5.560,241.415,179.213,195.254
0.355,33.505,5.568,5.569,241.447,179.201,195.283
0.357,33.546,5.575,5.576,241.473,179.192,195.313
0.358,33.584,5.581,5.581,241.496,179.186,195.342
0.359,33.619,5.585,5.585,241.518,179.182,195.371
0.361,33.654,5.588,5.587,241.540,179.180,195.397
0.362,33.687,5.589,5.588,241.564,179.178,195.420
0.363,33.721,5.588,5.588,241.592,179.175,195.439
0.364,33.757,5.586,5.586,241.625,179.172,195.454
0.366,33.799,5.581,5.584,241.665,179.167,195.464
0.367,33.849,5.576,5.580,241.714,179.159,195.467
0.368,33.909,5.569,5.576,241.774,179.148,195.464
0.370,33.983,5.563,5.570,241.845,179.134,195.452
0.371,34.072,5.557,5.564,241.930,179.115,195.433
0.372,34.173,5.551,5.556,242.025,179.092,195.409
0.374,34.286,5.547,5.548,242.131,179.065,195.381
0.375,34.407,5.545,5.538,242.245,179.035,195.352
0.376,34.536,5.545,5.530,242.367,179.003,195.323
0.378,34.671,5.547,5.525,242.494,178.967,195.297
0.379,34.809,5.552,5.524,242.625,178.930,195.276
0.380,34.949,5.559,5.530,242.759,178.890,195.261
0.382,35.091,5.569,5.545,242.894,178.849,195.255
0.383,35.233,5.583,5.570,243.030,178.807,195.260
0.384,35.375,5.601,5.607,243.164,178.763,195.278
0.386,35.517,5.622,5.657,243.295,178.720,195.310
0.387,35.660,5.646,5.716,243.423,178.676,195.355
0.388,35.802,5.674,5.781,243.547,178.633,195.412
0.389,35.945,5.705,5.848,243.666,178.591,195.478
0.391,36.085,5.738,5.913,243.780,178.551,195.549
0.392,36.222,5.775,5.973,243.888,178.513,195.624
0.393,36.355,5.814,6.023,243.991,178.478,195.700
0.395,36.480,5.855,6.062,244.088,178.448,195.774
0.396,36.597,5.898,6.089,244.177,178.421,195.845
0.397,36.703,5.941,6.105,244.260,178.400,195.908
0.399,36.797,5.982,6.113,244.334,178.384,195.963
0.400,36.876,6.021,6.115,244.401,178.375,196.005
0.401,36.942,6.056,6.114,244.459,178.372,196.034
0.403,36.996,6.086,6.112,244.510,178.375,196.051
0.404,37.044,6.110,6.111,244.558,178.380,196.057
0.405,37.091,6.125,6.113,244.604,178.388,196.053
0.407,37.139,6.134,6.118,244.650,178.396,196.043
0.408,37.190,6.138,6.127,244.698,178.403,196.026
0.409,37.248,6.136,6.138,244.752,178.406,196.006
0.411,37.312,6.132,6.153,244.812,178.404,195.983
0.412,37.386,6.125,6.170,244.882,178.396,195.960
0.413,37.472,6.118,6.190,244.963,178.380,195.938
0.414,37.572,6.111,6.212,245.059,178.354,195.920
0.416,37.691,6.105,6.236,245.170,178.316,195.905
0.417,37.828,6.102,6.261,245.297,178.266,195.897
0.418,37.981,6.100,6.285,245.438,178.206,195.893
0.420,38.146,6.102,6.309,245.588,178.138,195.894
0.421,38.319,6.106,6.329,245.745,178.064,195.898
0.422,38.497,6.114,6.345,245.904,177.986,195.905
0.424,38.675,6.127,6.357,246.063,177.906,195.914
0.425,38.850,6.143,6.362,246.218,177.826,195.925
0.426,39.017,6.164,6.361,246.366,177.748,195.937
0.428,39.173,6.187,6.356,246.502,177.674,195.949
0.429,39.313,6.213,6.348,246.625,177.606,195.960
0.430,39.434,6.238,6.338,246.729,177.547,195.970
0.432,39.532,6.263,6.327,246.813,177.497,195.978
0.433,39.607,6.287,6.317,246.877,177.457,195.984
0.434,39.662,6.307,6.310,246.922,177.427,195.987
0.436,39.700,6.324,6.306,246.954,177.404,195.989
0.437,39.725,6.337,6.305,246.974,177.389,195.989
0.438,39.740,6.346,6.307,246.985,177.380,195.986
0.439,39.749,6.351,6.312,246.992,177.376,195.982
0.441,39.756,6.354,6.320,246.996,177.376,195.976
0.442,39.766,6.354,6.329,247.001,177.379,195.968
0.443,39.780,6.352,6.339,247.009,177.383,195.958
0.445,39.800,6.347,6.351,247.025,177.389,195.947
0.446,39.830,6.341,6.363,247.051,177.394,195.934
0.447,39.871,6.333,6.376,247.089,177.398,195.919
0.449,39.922,6.324,6.390,247.137,177.401,195.903
0.450,39.980,6.314,6.404,247.193,177.401,195.885
0.451,40.042,6.305,6.418,247.252,177.398,195.867
0.453,40.106,6.296,6.433,247.313,177.392,195.847
0.454,40.168,6.287,6.448,247.371,177.383,195.827
0.455,40.226,6.279,6.463,247.423,177.369,195.806
0.457,40.278,6.273,6.478,247.467,177.350,195.785
0.458,40.323,6.269,6.495,247.498,177.326,195.764
0.459,40.364,6.265,6.514,247.515,177.296,195.742
0.461,40.406,6.264,6.536,247.513,177.260,195.721
0.462,40.459,6.264,6.563,247.490,177.217,195.700
0.463,40.528,6.266,6.594,247.445,177.168,195.679
0.464,40.610,6.269,6.632,247.388,177.113,195.660
0.466,40.696,6.274,6.675,247.326,177.055,195.643
0.467,40.780,6.279,6.720,247.270,176.995,195.628
0.468,40.855,6.279,6.760,247.227,176.935,195.617
0.470,40.917,6.273,6.788,247.206,176.876,195.610
0.471,40.974,6.258,6.799,247.217,176.821,195.608
0.472,41.046,6.229,6.785,247.269,176.770,195.611
0.474,41.156,6.185,6.741,247.369,176.726,195.620
0.475,41.320,6.122,6.660,247.528,176.690,195.636
0.476,41.549,6.040,6.539,247.754,176.663,195.659
0.478,41.852,5.944,6.390,248.055,176.648,195.691
0.479,42.227,5.839,6.220,248.429,176.644,195.730
0.480,42.662,5.731,6.042,248.861,176.650,195.776
0.482,43.141,5.626,5.866,249.337,176.664,195.825
0.483,43.651,5.530,5.701,249.844,176.685,195.877
0.484,44.178,5.448,5.558,250.368,176.711,195.931
0.486,44.708,5.386,5.448,250.894,176.741,195.983
0.487,45.226,5.346,5.373,251.409,176.772,196.033
0.488,45.718,5.323,5.328,251.898,176.804,196.079
0.489,46.172,5.315,5.307,252.348,176.835,196.120
0.491,46.571,5.318,5.305,252.745,176.863,196.153
0.492,46.902,5.330,5.317,253.075,176.887,196.177
0.493,47.154,5.346,5.339,253.326,176.905,196.191
0.495,47.331,5.364,5.363,253.502,176.919,196.196
0.496,47.444,5.381,5.386,253.614,176.929,196.194
0.497,47.504,5.395,5.406,253.673,176.938,196.188
0.499,47.524,5.406,5.422,253.690,176.948,196.179
0.500,47.545,5.413,5.434,253.674,176.959,196.171
0.501,47.586,5.416,5.442,253.636,176.973,196.165
0.503,47.638,5.415,5.444,253.588,176.992,196.164
0.504,47.693,5.407,5.440,253.539,177.018,196.169
0.505,47.746,5.394,5.429,253.501,177.052,196.184
0.507,47.800,5.375,5.412,253.483,177.095,196.211
0.508,47.869,5.351,5.390,253.497,177.150,196.251
0.509,47.970,5.324,5.364,253.548,177.216,196.306
0.511,48.103,5.296,5.336,253.633,177.293,196.374
0.512,48.266,5.267,5.307,253.747,177.379,196.452
0.513,48.451,5.240,5.278,253.882,177.470,196.540
0.514,48.654,5.216,5.252,254.035,177.567,196.633
0.516,48.868,5.196,5.229,254.199,177.665,196.730
0.517,49.088,5.182,5.210,254.368,177.764,196.829
0.518,49.306,5.172,5.195,254.537,177.861,196.926
0.520,49.517,5.165,5.184,254.700,177.954,197.021
0.521,49.713,5.162,5.176,254.852,178.042,197.111
0.522,49.890,5.162,5.171,254.986,178.122,197.192
0.524,50.040,5.164,5.168,255.098,178.193,197.264
0.525,50.163,5.167,5.168,255.186,178.254,197.326
0.526,50.263,5.172,5.170,255.253,178.305,197.377
0.528,50.343,5.177,5.173,255.304,178.349,197.421
0.529,50.408,5.182,5.178,255.342,178.387,197.457
0.530,50.460,5.187,5.183,255.371,178.420,197.487
0.532,50.505,5.193,5.190,255.394,178.448,197.512
0.533,50.545,5.198,5.196,255.416,178.474,197.534
0.534,50.584,5.202,5.202,255.441,178.498,197.552
0.536,50.627,5.206,5.207,255.471,178.522,197.570
0.537,50.677,5.209,5.212,255.511,178.547,197.587
