"T","Distance","Radius","FreeRadius","X","Y","Z"
0.000,0.000,2.482,2.482,239.034,209.333,198.625
0.001,0.055,2.460,2.460,239.024,209.375,198.591
0.002,0.108,2.438,2.438,239.014,209.415,198.559
0.004,0.154,2.419,2.419,239.005,209.451,198.530
0.005,0.193,2.403,2.403,238.997,209.480,198.505
0.006,0.221,2.392,2.392,238.991,209.499,198.487
0.007,0.235,2.386,2.386,238.986,209.508,198.476
0.008,0.242,2.388,2.388,238.983,209.502,198.474
0.010,0.265,2.397,2.397,238.982,209.481,198.484
0.011,0.310,2.416,2.416,238.984,209.441,198.505
0.012,0.380,2.443,2.443,238.990,209.381,198.540
0.013,0.478,2.479,2.479,238.998,209.298,198.591
0.014,0.605,2.523,2.523,239.010,209.190,198.659
0.015,0.760,2.572,2.572,239.026,209.061,198.742
0.017,0.938,2.627,2.627,239.046,208.913,198.838
0.018,1.132,2.686,2.686,239.069,208.752,198.946
0.019,1.340,2.749,2.749,239.095,208.582,199.062
0.020,1.556,2.814,2.814,239.125,208.408,199.186
0.021,1.775,2.880,2.880,239.158,208.233,199.314
0.023,1.992,2.947,2.947,239.195,208.063,199.444
0.024,2.204,3.016,3.016,239.234,207.902,199.575
0.025,2.405,3.084,3.084,239.276,207.753,199.704
0.026,2.592,3.154,3.154,239.322,207.622,199.829
0.027,2.760,3.223,3.223,239.370,207.513,199.947
0.029,2.910,3.292,3.292,239.421,207.426,200.059
0.030,3.046,3.361,3.361,239.474,207.360,200.165
0.031,3.171,3.429,3.429,239.530,207.312,200.266
0.032,3.289,3.497,3.497,239.588,207.279,200.363
0.033,3.401,3.564,3.564,239.648,207.260,200.456
0.034,3.512,3.631,3.631,239.710,207.253,200.547
0.036,3.622,3.697,3.697,239.775,207.254,200.637
0.037,3.733,3.763,3.763,239.841,207.262,200.725
0.038,3.846,3.829,3.829,239.909,207.275,200.814
0.039,3.961,3.894,3.894,239.978,207.290,200.905
0.040,4.078,3.960,3.960,240.049,207.305,200.997
0.042,4.197,4.025,4.025,240.121,207.318,201.091
0.043,4.317,4.090,4.090,240.193,207.330,201.186
0.044,4.437,4.152,4.152,240.266,207.341,201.282
0.045,4.556,4.212,4.212,240.337,207.351,201.376
0.046,4.672,4.269,4.269,240.406,207.361,201.468
0.048,4.783,4.321,4.321,240.473,207.372,201.557
0.049,4.889,4.367,4.367,240.537,207.382,201.641
0.050,4.989,4.408,4.408,240.596,207.393,201.720
0.051,5.081,4.441,4.441,240.652,207.406,201.792
0.052,5.164,4.468,4.468,240.702,207.419,201.857
0.053,5.236,4.488,4.488,240.746,207.434,201.912
0.055,5.298,4.503,4.503,240.783,207.451,201.959
0.056,5.350,4.513,4.513,240.815,207.470,201.996
0.057,5.394,4.519,4.519,240.841,207.489,202.026
0.058,5.432,4.522,4.522,240.863,207.509,202.049
0.059,5.464,4.524,4.524,240.880,207.530,202.066
0.061,5.491,4.524,4.524,240.895,207.550,202.078
0.062,5.516,4.524,4.524,240.907,207.569,202.086
0.063,5.538,4.524,4.524,240.917,207.588,202.091
0.064,5.558,4.523,4.523,240.927,207.605,202.094
0.065,5.575,4.523,4.523,240.935,207.621,202.096
0.067,5.591,4.523,4.523,240.944,207.634,202.097
0.068,5.606,4.524,4.524,240.953,207.645,202.100
0.069,5.619,4.525,4.525,240.963,207.653,202.103
0.070,5.631,4.527,4.527,240.973,207.659,202.107
0.071,5.641,4.530,4.530,240.982,207.662,202.110
0.072,5.649,4.534,4.534,240.989,207.664,202.113
0.074,5.655,4.539,4.539,240.995,207.664,202.115
0.075,5.658,4.545,4.545,240.997,207.662,202.117
0.076,5.662,4.551,4.551,240.996,207.659,202.116
0.077,5.669,4.557,4.557,240.991,207.654,202.114
0.078,5.680,4.564,4.564,240.982,207.649,202.110
0.080,5.698,4.571,4.571,240.967,207.642,202.104
0.081,5.722,4.577,4.577,240.947,207.635,202.095
0.082,5.750,4.584,4.584,240.922,207.627,202.083
0.083,5.780,4.590,4.590,240.895,207.620,202.072
0.084,5.808,4.595,4.595,240.870,207.614,202.061
0.086,5.831,4.598,4.598,240.849,207.610,202.053
0.087,5.846,4.600,4.600,240.835,207.608,202.049
0.088,5.851,4.598,4.598,240.830,207.610,202.050
0.089,5.864,4.594,4.594,240.837,207.615,202.059
0.090,5.894,4.585,4.585,240.860,207.626,202.076
0.091,5.945,4.573,4.573,240.900,207.641,202.104
0.093,6.021,4.557,4.557,240.961,207.663,202.143
0.094,6.124,4.539,4.539,241.045,207.692,202.195
0.095,6.255,4.519,4.519,241.153,207.727,202.259
0.096,6.407,4.500,4.500,241.279,207.767,202.334
0.097,6.576,4.482,4.482,241.420,207.812,202.417
0.099,6.756,4.467,4.467,241.571,207.859,202.504
0.100,6.943,4.456,4.456,241.727,207.907,202.593
0.101,7.130,4.451,4.451,241.885,207.955,202.681
0.102,7.312,4.452,4.452,242.040,208.001,202.766
0.103,7.485,4.460,4.460,242.187,208.045,202.844
0.105,7.642,4.471,4.471,242.322,208.084,202.914
0.106,7.778,4.486,4.486,242.441,208.117,202.972
0.107,7.889,4.503,4.503,242.540,208.143,203.015
0.108,7.972,4.521,4.521,242.615,208.162,203.043
0.109,8.030,4.538,4.538,242.670,208.174,203.058
0.110,8.067,4.553,4.553,242.707,208.180,203.061
0.112,8.089,4.565,4.565,242.728,208.181,203.058
0.113,8.101,4.574,4.574,242.737,208.180,203.049
0.114,8.113,4.579,4.579,242.736,208.176,203.037
0.115,8.127,4.582,4.582,242.729,208.171,203.027
0.116,8.142,4.583,4.583,242.717,208.166,203.019
0.118,8.155,4.583,4.583,242.704,208.163,203.018
0.119,8.168,4.582,4.582,242.693,208.162,203.026
0.120,8.189,4.580,4.580,242.686,208.164,203.045
0.121,8.223,4.579,4.579,242.687,208.171,203.078
0.122,8.269,4.578,4.578,242.696,208.181,203.123
0.124,8.327,4.577,4.577,242.715,208.192,203.177
0.125,8.395,4.575,4.575,242.745,208.201,203.236
0.126,8.471,4.571,4.571,242.788,208.208,203.299
0.127,8.556,4.563,4.563,242.845,208.209,203.362
0.128,8.650,4.550,4.550,242.917,208.203,203.422
0.129,8.755,4.532,4.532,243.006,208.188,203.476
0.131,8.874,4.508,4.508,243.113,208.162,203.522
0.132,9.010,4.476,4.476,243.239,208.122,203.556
0.133,9.168,4.436,4.436,243.385,208.068,203.576
0.134,9.351,4.392,4.392,243.554,207.996,203.579
0.135,9.560,4.345,4.345,243.742,207.908,203.565
0.137,9.790,4.297,4.297,243.948,207.808,203.537
0.138,10.041,4.252,4.252,244.169,207.698,203.496
0.139,10.306,4.211,4.211,244.401,207.580,203.444
0.140,10.584,4.176,4.176,244.643,207.458,203.382
0.141,10.869,4.150,4.150,244.890,207.334,203.314
0.143,11.157,4.135,4.135,245.141,207.212,203.240
0.144,11.446,4.130,4.130,245.393,207.093,203.163
0.145,11.730,4.134,4.134,245.642,206.982,203.084
0.146,12.006,4.145,4.145,245.886,206.880,203.005
0.147,12.270,4.163,4.163,246.123,206.791,202.929
0.148,12.520,4.185,4.185,246.350,206.715,202.856
0.150,12.757,4.210,4.210,246.567,206.651,202.788
0.151,12.980,4.237,4.237,246.774,206.596,202.725
0.152,13.190,4.265,4.265,246.971,206.551,202.668
0.153,13.386,4.293,4.293,247.157,206.513,202.618
0.154,13.569,4.321,4.321,247.332,206.481,202.577
0.156,13.738,4.349,4.349,247.495,206.453,202.543
0.157,13.893,4.376,4.376,247.647,206.429,202.520
0.158,14.035,4.404,4.404,247.786,206.405,202.507
0.159,14.164,4.431,4.431,247.913,206.382,202.505
0.160,14.282,4.459,4.459,248.027,206.357,202.515
0.162,14.388,4.486,4.486,248.128,206.330,202.537
0.163,14.486,4.513,4.513,248.216,206.302,202.569
0.164,14.575,4.539,4.539,248.292,206.273,202.606
0.165,14.655,4.564,4.564,248.355,206.245,202.647
0.166,14.725,4.584,4.584,248.405,206.220,202.688
0.167,14.784,4.601,4.601,248.443,206.197,202.726
0.169,14.830,4.613,4.613,248.468,206.178,202.760
0.170,14.861,4.617,4.617,248.482,206.164,202.785
0.171,14.878,4.615,4.615,248.483,206.156,202.799
0.172,14.888,4.604,4.604,248.473,206.155,202.799
0.173,14.917,4.585,4.585,248.451,206.162,202.782
0.175,14.967,4.560,4.560,248.418,206.177,202.747
0.176,15.032,4.531,4.531,248.379,206.199,202.699
0.177,15.105,4.501,4.501,248.337,206.223,202.645
0.178,15.177,4.473,4.473,248.296,206.248,202.591
0.179,15.239,4.448,4.448,248.262,206.269,202.544
0.181,15.283,4.429,4.429,248.239,206.285,202.510
0.182,15.301,4.419,4.419,248.231,206.292,202.495
0.183,15.318,4.418,4.418,248.243,206.286,202.506
0.184,15.378,4.430,4.430,248.278,206.267,202.550
0.185,15.489,4.455,4.455,248.342,206.229,202.633
0.186,15.659,4.493,4.493,248.438,206.171,202.761
0.188,15.896,4.546,4.546,248.571,206.090,202.939
0.189,16.192,4.614,4.614,248.736,205.987,203.163
0.190,16.536,4.699,4.699,248.927,205.869,203.423
0.191,16.915,4.802,4.802,249.138,205.737,203.710
0.192,17.318,4.924,4.924,249.360,205.597,204.015
0.194,17.732,5.062,5.062,249.588,205.452,204.328
0.195,18.146,5.211,5.211,249.816,205.307,204.642
0.196,18.546,5.366,5.366,250.035,205.165,204.945
0.197,18.923,5.521,5.521,250.241,205.030,205.230
0.198,19.262,5.670,5.670,250.425,204.907,205.488
0.200,19.553,5.807,5.807,250.581,204.800,205.708
0.201,19.784,5.927,5.927,250.704,204.712,205.883
0.202,19.954,6.024,6.024,250.793,204.644,206.011
0.203,20.070,6.094,6.094,250.851,204.594,206.098
0.204,20.141,6.139,6.139,250.885,204.559,206.150
0.205,20.175,6.162,6.162,250.898,204.538,206.173
0.207,20.186,6.168,6.168,250.896,204.527,206.171
0.208,20.211,6.162,6.162,250.881,204.526,206.151
0.209,20.250,6.147,6.147,250.861,204.531,206.118
0.210,20.297,6.128,6.128,250.838,204.540,206.078
0.211,20.345,6.109,6.109,250.817,204.552,206.036
0.213,20.387,6.093,6.093,250.804,204.564,205.999
0.214,20.417,6.084,6.084,250.802,204.573,205.970
0.215,20.438,6.081,6.081,250.813,204.579,205.954
0.216,20.461,6.084,6.084,250.836,204.582,205.950
0.217,20.495,6.091,6.091,250.869,204.582,205.955
0.219,20.538,6.102,6.102,250.910,204.578,205.970
0.220,20.590,6.117,6.117,250.956,204.571,205.992
0.221,20.648,6.134,6.134,251.006,204.562,206.020
0.222,20.711,6.155,6.155,251.058,204.550,206.054
0.223,20.776,6.177,6.177,251.109,204.536,206.092
0.224,20.841,6.200,6.200,251.157,204.519,206.133
0.226,20.905,6.224,6.224,251.201,204.501,206.175
0.227,20.966,6.248,6.248,251.239,204.480,206.218
0.228,21.022,6.271,6.271,251.269,204.458,206.260
0.229,21.075,6.293,6.293,251.291,204.434,206.301
0.230,21.124,6.313,6.313,251.307,204.409,206.341
0.232,21.172,6.330,6.330,251.317,204.383,206.380
0.233,21.218,6.343,6.344,251.323,204.357,206.417
0.234,21.262,6.354,6.354,251.324,204.330,206.452
0.235,21.304,6.361,6.361,251.322,204.304,206.485
0.236,21.345,6.366,6.366,251.317,204.278,206.516
0.238,21.384,6.369,6.370,251.310,204.253,206.545
0.239,21.420,6.371,6.372,251.303,204.229,206.571
0.240,21.453,6.373,6.374,251.295,204.206,206.594
0.241,21.483,6.375,6.376,251.288,204.186,206.615
0.242,21.510,6.378,6.379,251.281,204.166,206.632
0.243,21.534,6.383,6.382,251.276,204.149,206.648
0.245,21.556,6.389,6.387,251.273,204.133,206.662
0.246,21.576,6.396,6.394,251.271,204.118,206.675
0.247,21.594,6.404,6.401,251.272,204.104,206.687
0.248,21.612,6.413,6.409,251.276,204.092,206.700
0.249,21.630,6.421,6.417,251.282,204.080,206.712
0.251,21.650,6.429,6.426,251.292,204.069,206.726
0.252,21.672,6.437,6.435,251.305,204.059,206.740
0.253,21.698,6.443,6.444,251.323,204.050,206.757
0.254,21.729,6.449,6.454,251.345,204.041,206.776
0.255,21.763,6.454,6.463,251.370,204.032,206.797
0.257,21.800,6.458,6.472,251.398,204.023,206.820
0.258,21.840,6.463,6.481,251.428,204.015,206.845
0.259,21.882,6.468,6.490,251.459,204.006,206.872
0.260,21.924,6.473,6.499,251.490,203.997,206.900
0.261,21.967,6.480,6.507,251.519,203.987,206.928
0.262,22.008,6.487,6.516,251.547,203.977,206.958
0.264,22.048,6.497,6.524,251.571,203.966,206.987
0.265,22.086,6.506,6.531,251.591,203.954,207.017
0.266,22.122,6.516,6.538,251.606,203.941,207.047
0.267,22.156,6.525,6.543,251.615,203.926,207.076
0.268,22.189,6.531,6.548,251.619,203.910,207.105
0.270,22.222,6.535,6.550,251.621,203.892,207.133
0.271,22.256,6.535,6.551,251.625,203.873,207.160
0.272,22.290,6.530,6.550,251.633,203.852,207.187
0.273,22.328,6.520,6.546,251.648,203.830,207.212
0.274,22.371,6.503,6.539,251.675,203.806,207.237
0.276,22.425,6.479,6.528,251.716,203.779,207.260
0.277,22.493,6.448,6.511,251.774,203.751,207.282
0.278,22.580,6.409,6.487,251.852,203.721,207.303
0.279,22.689,6.362,6.454,251.954,203.688,207.323
0.280,22.824,6.306,6.412,252.084,203.654,207.341
0.281,22.986,6.241,6.359,252.241,203.617,207.358
0.283,23.175,6.166,6.294,252.424,203.577,207.373
0.284,23.387,6.081,6.215,252.631,203.533,207.387
0.285,23.620,5.989,6.126,252.859,203.486,207.398
0.286,23.871,5.890,6.029,253.105,203.433,207.408
0.287,24.139,5.788,5.927,253.367,203.375,207.416
0.289,24.421,5.686,5.824,253.641,203.311,207.422
0.290,24.715,5.585,5.722,253.926,203.240,207.425
0.291,25.018,5.488,5.626,254.219,203.163,207.426
0.292,25.327,5.397,5.538,254.516,203.077,207.425
0.293,25.642,5.315,5.461,254.817,202.983,207.421
0.295,25.959,5.244,5.397,255.117,202.880,207.415
0.296,26.276,5.181,5.345,255.414,202.771,207.407
0.297,26.590,5.128,5.303,255.706,202.656,207.397
0.298,26.897,5.083,5.270,255.989,202.538,207.385
0.299,27.195,5.046,5.244,256.262,202.419,207.374
0.300,27.481,5.016,5.224,256.522,202.301,207.361
0.302,27.751,4.993,5.209,256.765,202.185,207.349
0.303,28.002,4.976,5.197,256.990,202.074,207.338
0.304,28.231,4.964,5.187,257.194,201.970,207.328
0.305,28.435,4.957,5.178,257.374,201.875,207.320
0.306,28.610,4.954,5.170,257.527,201.790,207.314
0.308,28.754,4.956,5.164,257.652,201.717,207.310
0.309,28.868,4.961,5.158,257.749,201.657,207.308
0.310,28.955,4.970,5.153,257.821,201.608,207.308
0.311,29.017,4.981,5.148,257.870,201.571,207.309
0.312,29.057,4.996,5.143,257.900,201.543,207.309
0.314,29.079,5.012,5.138,257.912,201.525,207.309
0.315,29.089,5.030,5.133,257.910,201.515,207.307
0.316,29.104,5.049,5.129,257.895,201.514,207.303
0.317,29.130,5.068,5.126,257.871,201.519,207.296
0.318,29.164,5.087,5.124,257.841,201.531,207.286
0.319,29.206,5.105,5.125,257.806,201.548,207.271
0.321,29.253,5.122,5.128,257.770,201.570,207.251
0.322,29.302,5.136,5.136,257.734,201.595,207.227
0.323,29.351,5.147,5.147,257.701,201.621,207.202
0.324,29.395,5.155,5.162,257.674,201.645,207.178
0.325,29.430,5.159,5.180,257.654,201.664,207.156
0.327,29.452,5.158,5.199,257.643,201.676,207.141
0.328,29.460,5.153,5.216,257.644,201.679,207.133
0.329,29.478,5.142,5.230,257.658,201.669,207.137
0.330,29.520,5.125,5.237,257.689,201.644,207.153
0.331,29.592,5.102,5.236,257.737,201.603,207.184
0.333,29.696,5.072,5.224,257.806,201.541,207.233
0.334,29.838,5.036,5.199,257.897,201.457,207.303
0.335,30.018,4.993,5.162,258.010,201.351,207.392
0.336,30.227,4.944,5.114,258.142,201.226,207.499
0.337,30.460,4.893,5.060,258.287,201.088,207.617
0.338,30.709,4.840,5.003,258.441,200.940,207.744
0.340,30.966,4.789,4.945,258.600,200.787,207.875
0.341,31.224,4.739,4.891,258.760,200.633,208.007
0.342,31.476,4.694,4.844,258.917,200.483,208.135
0.343,31.714,4.655,4.806,259.065,200.341,208.255
0.344,31.931,4.624,4.781,259.201,200.211,208.363
0.346,32.119,4.600,4.768,259.320,200.097,208.455
0.347,32.272,4.583,4.765,259.417,200.005,208.528
0.348,32.384,4.572,4.769,259.491,199.937,208.578
0.349,32.461,4.565,4.778,259.544,199.890,208.610
0.350,32.509,4.563,4.789,259.577,199.860,208.626
0.352,32.532,4.564,4.802,259.595,199.846,208.631
0.353,32.539,4.567,4.812,259.601,199.844,208.629
0.354,32.548,4.572,4.819,259.597,199.849,208.623
0.355,32.563,4.577,4.820,259.586,199.860,208.619
0.356,32.582,4.583,4.816,259.572,199.872,208.619
0.357,32.602,4.589,4.810,259.558,199.883,208.628
0.359,32.627,4.594,4.800,259.547,199.889,208.649
0.360,32.665,4.599,4.788,259.541,199.887,208.687
0.361,32.725,4.603,4.776,259.543,199.874,208.745
0.362,32.805,4.606,4.763,259.554,199.850,208.822
0.363,32.904,4.607,4.751,259.573,199.819,208.913
0.365,33.017,4.606,4.741,259.599,199.781,209.016
0.366,33.140,4.603,4.732,259.631,199.738,209.127
0.367,33.271,4.600,4.724,259.669,199.693,209.244
0.368,33.406,4.596,4.717,259.713,199.646,209.363
0.369,33.541,4.592,4.710,259.761,199.600,209.481
0.371,33.673,4.588,4.703,259.813,199.556,209.594
0.372,33.799,4.585,4.696,259.869,199.517,209.699
0.373,33.914,4.584,4.688,259.927,199.484,209.793
0.374,34.017,4.585,4.679,259.986,199.458,209.873
0.375,34.111,4.588,4.670,260.049,199.439,209.941
0.376,34.201,4.593,4.660,260.114,199.422,210.000
0.378,34.290,4.601,4.652,260.183,199.406,210.055
0.379,34.384,4.610,4.646,260.256,199.386,210.109
0.380,34.486,4.622,4.644,260.335,199.360,210.167
0.381,34.600,4.635,4.646,260.421,199.323,210.234
0.382,34.731,4.651,4.653,260.513,199.274,210.312
0.384,34.883,4.668,4.668,260.613,199.207,210.406
0.385,35.064,4.686,4.690,260.722,199.121,210.521
0.386,35.277,4.707,4.719,260.840,199.012,210.661
0.387,35.528,4.731,4.755,260.969,198.876,210.829
0.388,35.817,4.757,4.798,261.107,198.715,211.024
0.390,36.136,4.787,4.846,261.254,198.532,211.241
0.391,36.478,4.821,4.900,261.407,198.332,211.473
0.392,36.834,4.860,4.957,261.564,198.122,211.713
0.393,37.196,4.904,5.019,261.725,197.905,211.954
0.394,37.556,4.954,5.084,261.886,197.686,212.190
0.395,37.906,5.010,5.152,262.047,197.470,212.414
0.397,38.238,5.069,5.220,262.205,197.262,212.619
0.398,38.545,5.131,5.288,262.359,197.068,212.799
0.399,38.818,5.193,5.355,262.507,196.891,212.946
0.400,39.053,5.254,5.419,262.648,196.738,213.055
0.401,39.248,5.312,5.478,262.779,196.610,213.122
0.403,39.410,5.365,5.533,262.900,196.506,213.151
0.404,39.549,5.412,5.580,263.011,196.423,213.148
0.405,39.672,5.451,5.619,263.112,196.360,213.118
0.406,39.785,5.483,5.651,263.203,196.314,213.067
0.407,39.893,5.508,5.675,263.282,196.282,213.001
0.409,39.997,5.527,5.694,263.351,196.263,212.925
0.410,40.097,5.541,5.708,263.407,196.254,212.844
0.411,40.188,5.551,5.717,263.452,196.252,212.765
0.412,40.268,5.557,5.724,263.485,196.255,212.691
0.413,40.333,5.561,5.728,263.505,196.262,212.630
0.414,40.379,5.564,5.730,263.513,196.269,212.585
0.416,40.409,5.566,5.732,263.511,196.276,212.556
0.417,40.427,5.567,5.734,263.503,196.282,212.541
0.418,40.440,5.568,5.735,263.492,196.286,212.538
0.419,40.453,5.569,5.736,263.481,196.289,212.545
0.420,40.470,5.571,5.737,263.474,196.288,212.560
0.422,40.491,5.572,5.739,263.473,196.283,212.581
0.423,40.520,5.575,5.741,263.482,196.274,212.607
0.424,40.559,5.579,5.744,263.505,196.260,212.635
0.425,40.611,5.584,5.749,263.544,196.240,212.663
0.426,40.681,5.591,5.754,263.603,196.213,212.690
0.428,40.773,5.599,5.762,263.685,196.179,212.713
0.429,40.885,5.611,5.772,263.789,196.139,212.733
0.430,41.017,5.626,5.784,263.911,196.093,212.751
0.431,41.164,5.644,5.800,264.048,196.044,212.766
0.432,41.323,5.666,5.818,264.197,195.991,212.780
0.433,41.491,5.692,5.841,264.356,195.937,212.793
0.435,41.665,5.723,5.867,264.521,195.882,212.806
0.436,41.842,5.759,5.898,264.688,195.829,212.819
0.437,42.017,5.798,5.932,264.856,195.777,212.834
0.438,42.189,5.841,5.969,265.020,195.729,212.850
0.439,42.353,5.887,6.010,265.177,195.685,212.868
0.441,42.507,5.933,6.053,265.325,195.647,212.890
0.442,42.651,5.981,6.097,265.462,195.614,212.915
0.443,42.786,6.028,6.143,265.592,195.586,212.944
0.444,42.915,6.074,6.191,265.714,195.561,212.976
0.445,43.040,6.119,6.239,265.831,195.536,213.011
0.447,43.163,6.161,6.287,265.945,195.512,213.049
0.448,43.285,6.203,6.336,266.058,195.485,213.090
0.449,43.410,6.245,6.386,266.170,195.456,213.135
0.450,43.539,6.287,6.437,266.285,195.422,213.182
0.451,43.673,6.329,6.489,266.403,195.381,213.233
0.452,43.816,6.374,6.542,266.527,195.334,213.286
0.454,43.970,6.420,6.596,266.658,195.277,213.342
0.455,44.134,6.469,6.651,266.796,195.211,213.401
0.456,44.305,6.521,6.708,266.939,195.137,213.461
0.457,44.482,6.574,6.764,267.085,195.059,213.522
0.458,44.659,6.628,6.819,267.230,194.977,213.583
0.460,44.835,6.681,6.872,267.373,194.893,213.642
0.461,45.004,6.732,6.922,267.510,194.811,213.698
0.462,45.165,6.780,6.967,267.639,194.732,213.751
0.463,45.313,6.824,7.005,267.758,194.658,213.800
0.464,45.446,6.862,7.038,267.863,194.590,213.843
0.466,45.559,6.894,7.062,267.953,194.532,213.880
0.467,45.649,6.919,7.078,268.024,194.486,213.910
0.468,45.714,6.938,7.089,268.075,194.452,213.932
0.469,45.757,6.952,7.095,268.109,194.429,213.946
0.470,45.781,6.961,7.097,268.127,194.416,213.954
0.471,45.789,6.967,7.096,268.133,194.411,213.956
0.473,45.793,6.970,7.094,268.129,194.412,213.955
0.474,45.806,6.971,7.093,268.119,194.419,213.950
0.475,45.825,6.970,7.092,268.105,194.428,213.942
0.476,45.845,6.968,7.094,268.089,194.438,213.933
0.477,45.865,6.965,7.097,268.075,194.448,213.923
0.479,45.881,6.962,7.102,268.065,194.456,213.914
0.480,45.890,6.960,7.108,268.062,194.460,213.907
0.481,45.898,6.959,7.115,268.069,194.459,213.902
0.482,45.915,6.958,7.123,268.085,194.453,213.899
0.483,45.941,6.960,7.131,268.108,194.442,213.898
0.485,45.974,6.964,7.138,268.138,194.428,213.898
