"T","Distance","Radius","FreeRadius","X","Y","Z"
0.000,0.000,2.370,2.370,210.561,240.290,217.241
0.002,0.314,2.475,2.475,210.768,240.446,217.420
0.003,0.627,2.583,2.583,210.973,240.601,217.597
0.005,0.935,2.697,2.697,211.175,240.754,217.773
0.006,1.237,2.819,2.819,211.373,240.905,217.944
0.008,1.531,2.952,2.952,211.564,241.054,218.110
0.009,1.815,3.099,3.099,211.749,241.199,218.270
0.011,2.087,3.261,3.261,211.925,241.339,218.421
0.013,2.344,3.435,3.435,212.091,241.475,218.564
0.014,2.586,3.608,3.608,212.245,241.605,218.697
0.016,2.809,3.769,3.769,212.386,241.729,218.818
0.017,3.013,3.908,3.908,212.513,241.846,218.926
0.019,3.194,4.012,4.012,212.624,241.955,219.020
0.021,3.352,4.071,4.071,212.717,242.056,219.098
0.022,3.486,4.082,4.082,212.792,242.147,219.160
0.024,3.595,4.055,4.055,212.848,242.230,219.205
0.025,3.685,4.006,4.006,212.887,242.304,219.236
0.027,3.758,3.947,3.947,212.911,242.371,219.253
0.028,3.820,3.892,3.892,212.921,242.432,219.260
0.030,3.874,3.856,3.856,212.919,242.487,219.257
0.032,3.927,3.849,3.849,212.907,242.536,219.247
0.033,3.979,3.870,3.870,212.886,242.581,219.230
0.035,4.034,3.909,3.909,212.858,242.623,219.210
0.036,4.090,3.960,3.960,212.825,242.663,219.187
0.038,4.148,4.013,4.013,212.787,242.700,219.163
0.040,4.207,4.062,4.062,212.748,242.737,219.140
0.041,4.264,4.097,4.097,212.708,242.773,219.120
0.043,4.320,4.117,4.117,212.669,242.810,219.105
0.044,4.374,4.125,4.125,212.632,242.849,219.095
0.046,4.427,4.126,4.126,212.599,242.889,219.089
0.047,4.481,4.123,4.123,212.568,242.934,219.088
0.049,4.538,4.121,4.121,212.540,242.983,219.089
0.051,4.598,4.122,4.122,212.516,243.037,219.091
0.052,4.663,4.131,4.131,212.495,243.099,219.093
0.054,4.734,4.146,4.146,212.477,243.168,219.094
0.055,4.813,4.166,4.166,212.463,243.246,219.093
0.057,4.902,4.191,4.191,212.454,243.334,219.088
0.059,5.001,4.218,4.218,212.448,243.433,219.078
0.060,5.113,4.246,4.246,212.447,243.544,219.063
0.062,5.239,4.275,4.275,212.450,243.668,219.041
0.063,5.381,4.304,4.304,212.458,243.806,219.011
0.065,5.539,4.336,4.336,212.470,243.959,218.971
0.066,5.714,4.372,4.372,212.487,244.126,218.923
0.068,5.900,4.413,4.413,212.509,244.302,218.868
0.070,6.096,4.461,4.461,212.534,244.486,218.807
0.071,6.296,4.518,4.518,212.563,244.674,218.742
0.073,6.499,4.583,4.583,212.595,244.863,218.676
0.074,6.699,4.652,4.652,212.629,245.049,218.609
0.076,6.895,4.720,4.720,212.666,245.229,218.543
0.078,7.081,4.782,4.782,212.705,245.400,218.480
0.079,7.256,4.836,4.836,212.746,245.559,218.421
0.081,7.415,4.876,4.876,212.788,245.703,218.369
0.082,7.554,4.898,4.898,212.831,245.828,218.324
0.084,7.672,4.906,4.906,212.874,245.932,218.288
0.085,7.765,4.905,4.905,212.917,246.011,218.264
0.087,7.834,4.897,4.897,212.960,246.063,218.251
0.089,7.885,4.889,4.889,213.001,246.093,218.247
0.090,7.924,4.885,4.885,213.038,246.103,218.252
0.092,7.959,4.888,4.888,213.071,246.099,218.262
0.093,7.993,4.900,4.900,213.098,246.082,218.276
0.095,8.028,4.917,4.917,213.117,246.059,218.292
0.097,8.061,4.937,4.937,213.127,246.031,218.308
0.098,8.092,4.956,4.956,213.127,246.003,218.321
0.100,8.121,4.970,4.970,213.115,245.978,218.330
0.101,8.151,4.978,4.978,213.090,245.962,218.333
0.103,8.192,4.977,4.977,213.050,245.956,218.327
0.104,8.251,4.968,4.968,212.994,245.965,218.311
0.106,8.335,4.952,4.952,212.921,245.994,218.283
0.108,8.448,4.931,4.931,212.829,246.044,218.241
0.109,8.589,4.905,4.905,212.720,246.116,218.186
0.111,8.755,4.876,4.876,212.597,246.207,218.121
0.112,8.941,4.846,4.846,212.464,246.316,218.049
0.114,9.143,4.816,4.816,212.324,246.439,217.973
0.116,9.356,4.788,4.788,212.179,246.575,217.895
0.117,9.576,4.762,4.762,212.033,246.720,217.819
0.119,9.798,4.742,4.742,211.890,246.874,217.747
0.120,10.018,4.727,4.727,211.751,247.032,217.682
0.122,10.233,4.721,4.721,211.621,247.194,217.626
0.123,10.439,4.722,4.722,211.503,247.356,217.583
0.125,10.632,4.727,4.727,211.399,247.517,217.556
0.127,10.811,4.735,4.735,211.313,247.674,217.546
0.128,10.976,4.741,4.741,211.248,247.825,217.557
0.130,11.129,4.742,4.742,211.205,247.968,217.591
0.131,11.279,4.736,4.736,211.183,248.106,217.644
0.133,11.431,4.721,4.721,211.179,248.241,217.714
0.134,11.590,4.698,4.698,211.193,248.374,217.800
0.136,11.758,4.670,4.670,211.222,248.507,217.898
0.138,11.937,4.639,4.639,211.264,248.643,218.007
0.139,12.127,4.609,4.609,211.318,248.783,218.124
0.141,12.327,4.582,4.582,211.381,248.928,218.247
0.142,12.539,4.561,4.561,211.452,249.082,218.373
0.144,12.760,4.545,4.545,211.530,249.245,218.500
0.146,12.990,4.532,4.532,211.611,249.420,218.627
0.147,13.230,4.523,4.523,211.694,249.608,218.750
0.149,13.480,4.514,4.514,211.779,249.812,218.867
0.150,13.740,4.503,4.503,211.862,250.033,218.976
0.152,14.009,4.490,4.490,211.943,250.269,219.077
0.153,14.287,4.475,4.475,212.022,250.518,219.170
0.155,14.571,4.462,4.462,212.099,250.778,219.255
0.157,14.860,4.458,4.458,212.174,251.046,219.333
0.158,15.152,4.468,4.468,212.247,251.320,219.404
0.160,15.445,4.497,4.497,212.316,251.597,219.467
0.161,15.736,4.551,4.551,212.384,251.876,219.523
0.163,16.025,4.634,4.634,212.448,252.152,219.573
0.165,16.308,4.741,4.741,212.509,252.425,219.616
0.166,16.583,4.863,4.863,212.566,252.692,219.653
0.168,16.848,4.993,4.993,212.621,252.950,219.684
0.169,17.101,5.122,5.122,212.671,253.196,219.709
0.171,17.340,5.242,5.242,212.718,253.430,219.728
0.172,17.563,5.344,5.344,212.761,253.648,219.743
0.174,17.772,5.426,5.426,212.802,253.853,219.752
0.176,17.968,5.494,5.494,212.840,254.045,219.758
0.177,18.151,5.551,5.551,212.876,254.224,219.761
0.179,18.322,5.603,5.603,212.912,254.392,219.761
0.180,18.483,5.654,5.654,212.947,254.548,219.760
0.182,18.634,5.710,5.710,212.983,254.695,219.757
0.184,18.776,5.773,5.773,213.020,254.832,219.753
0.185,18.910,5.841,5.841,213.058,254.960,219.750
0.187,19.037,5.912,5.912,213.100,255.081,219.748
0.188,19.159,5.982,5.982,213.144,255.194,219.747
0.190,19.276,6.050,6.050,213.192,255.301,219.749
0.191,19.390,6.111,6.111,213.245,255.402,219.753
0.193,19.502,6.163,6.163,213.302,255.498,219.761
0.195,19.613,6.207,6.207,213.364,255.589,219.772
0.196,19.722,6.244,6.244,213.430,255.676,219.785
0.198,19.830,6.277,6.277,213.497,255.758,219.800
0.199,19.936,6.308,6.308,213.567,255.836,219.817
0.201,20.039,6.339,6.339,213.637,255.910,219.834
0.203,20.140,6.371,6.371,213.707,255.980,219.852
0.204,20.237,6.406,6.406,213.776,256.046,219.869
0.206,20.330,6.440,6.440,213.843,256.108,219.886
0.207,20.418,6.473,6.473,213.907,256.167,219.901
0.209,20.502,6.502,6.502,213.968,256.223,219.915
0.210,20.579,6.524,6.524,214.023,256.276,219.926
0.212,20.651,6.537,6.537,214.074,256.326,219.934
0.214,20.715,6.541,6.541,214.117,256.373,219.939
0.215,20.773,6.536,6.536,214.154,256.418,219.940
0.217,20.825,6.527,6.527,214.186,256.459,219.937
0.218,20.872,6.517,6.517,214.213,256.497,219.932
0.220,20.914,6.508,6.508,214.235,256.532,219.924
0.222,20.951,6.505,6.505,214.254,256.563,219.914
0.223,20.985,6.509,6.509,214.271,256.589,219.902
0.225,21.014,6.522,6.522,214.285,256.611,219.888
0.226,21.041,6.539,6.539,214.299,256.628,219.873
0.228,21.065,6.556,6.556,214.312,256.640,219.857
0.229,21.088,6.570,6.569,214.326,256.646,219.840
0.231,21.111,6.577,6.576,214.341,256.647,219.823
0.233,21.136,6.573,6.573,214.359,256.642,219.806
0.234,21.164,6.557,6.557,214.379,256.631,219.789
0.236,21.197,6.531,6.532,214.402,256.613,219.773
0.237,21.234,6.502,6.502,214.427,256.592,219.757
0.239,21.272,6.471,6.472,214.452,256.568,219.744
0.241,21.308,6.445,6.445,214.477,256.543,219.732
0.242,21.341,6.426,6.426,214.498,256.521,219.722
0.244,21.367,6.418,6.418,214.516,256.502,219.715
0.245,21.385,6.421,6.420,214.528,256.489,219.712
0.247,21.393,6.431,6.429,214.532,256.483,219.712
0.248,21.400,6.446,6.443,214.528,256.487,219.716
0.250,21.423,6.462,6.460,214.514,256.503,219.725
0.252,21.465,6.476,6.475,214.488,256.533,219.739
0.253,21.528,6.486,6.487,214.449,256.579,219.758
0.255,21.615,6.489,6.493,214.396,256.642,219.784
0.256,21.727,6.488,6.495,214.326,256.725,219.815
0.258,21.865,6.484,6.492,214.241,256.827,219.853
0.259,22.025,6.477,6.486,214.144,256.947,219.896
0.261,22.203,6.469,6.475,214.039,257.082,219.944
0.263,22.396,6.461,6.461,213.927,257.230,219.996
0.264,22.602,6.453,6.443,213.812,257.391,220.052
0.266,22.815,6.445,6.424,213.697,257.561,220.111
0.267,23.035,6.433,6.403,213.584,257.739,220.172
0.269,23.257,6.416,6.383,213.477,257.924,220.235
0.271,23.479,6.391,6.363,213.379,258.112,220.300
0.272,23.699,6.356,6.346,213.292,258.303,220.365
0.274,23.914,6.308,6.331,213.220,258.494,220.430
0.275,24.121,6.251,6.319,213.165,258.684,220.495
0.277,24.321,6.188,6.308,213.130,258.870,220.558
0.278,24.513,6.124,6.298,213.117,259.052,220.620
0.280,24.699,6.064,6.288,213.124,259.227,220.679
0.282,24.878,6.012,6.276,213.148,259.396,220.736
0.283,25.052,5.972,6.261,213.187,259.557,220.791
0.285,25.221,5.948,6.244,213.239,259.708,220.842
0.286,25.383,5.937,6.224,213.301,259.851,220.889
0.288,25.538,5.936,6.202,213.370,259.982,220.933
0.290,25.685,5.943,6.180,213.445,260.102,220.973
0.291,25.822,5.955,6.158,213.523,260.210,221.008
0.293,25.948,5.970,6.137,213.601,260.304,221.039
0.294,26.061,5.986,6.117,213.677,260.383,221.064
0.296,26.159,6.001,6.100,213.749,260.448,221.083
0.297,26.241,6.016,6.086,213.814,260.496,221.097
0.299,26.306,6.031,6.075,213.869,260.527,221.104
0.301,26.355,6.045,6.068,213.916,260.544,221.106
0.302,26.393,6.059,6.065,213.953,260.551,221.103
0.304,26.422,6.072,6.067,213.981,260.551,221.097
0.305,26.444,6.084,6.072,214.001,260.548,221.088
0.307,26.460,6.092,6.078,214.012,260.548,221.076
0.309,26.474,6.095,6.082,214.017,260.552,221.064
0.310,26.493,6.091,6.082,214.013,260.566,221.052
0.312,26.524,6.078,6.073,214.003,260.594,221.041
0.313,26.573,6.054,6.055,213.987,260.639,221.031
0.315,26.643,6.018,6.024,213.964,260.705,221.025
0.316,26.739,5.970,5.981,213.936,260.797,221.022
0.318,26.865,5.910,5.927,213.902,260.918,221.024
0.320,27.024,5.839,5.860,213.864,261.072,221.032
0.321,27.218,5.759,5.783,213.821,261.260,221.045
0.323,27.441,5.669,5.696,213.774,261.478,221.064
0.324,27.688,5.570,5.599,213.725,261.719,221.087
0.326,27.955,5.466,5.495,213.673,261.979,221.114
0.328,28.234,5.359,5.387,213.620,262.252,221.144
0.329,28.522,5.255,5.281,213.566,262.533,221.175
0.331,28.812,5.155,5.180,213.513,262.816,221.208
0.332,29.099,5.065,5.087,213.460,263.097,221.241
0.334,29.378,4.988,5.007,213.409,263.369,221.273
0.335,29.643,4.925,4.941,213.361,263.627,221.304
0.337,29.889,4.875,4.888,213.316,263.867,221.333
0.339,30.110,4.836,4.847,213.275,264.083,221.359
0.340,30.300,4.806,4.816,213.239,264.269,221.381
0.342,30.456,4.783,4.793,213.209,264.420,221.398
0.343,30.579,4.765,4.776,213.183,264.539,221.411
0.345,30.671,4.751,4.765,213.163,264.629,221.421
0.347,30.736,4.739,4.757,213.147,264.692,221.427
0.348,30.779,4.731,4.752,213.134,264.732,221.431
0.350,30.801,4.725,4.750,213.126,264.753,221.434
0.351,30.809,4.722,4.750,213.120,264.757,221.435
0.353,30.818,4.721,4.750,213.116,264.749,221.436
0.354,30.836,4.723,4.751,213.115,264.731,221.437
0.356,30.861,4.727,4.751,213.115,264.706,221.439
0.358,30.888,4.731,4.749,213.116,264.679,221.442
0.359,30.916,4.733,4.746,213.118,264.652,221.447
0.361,30.940,4.732,4.739,213.120,264.629,221.455
0.362,30.960,4.727,4.729,213.121,264.613,221.467
0.364,30.977,4.715,4.715,213.122,264.605,221.481
0.366,30.994,4.697,4.696,213.121,264.607,221.498
0.367,31.015,4.675,4.675,213.119,264.617,221.517
0.369,31.042,4.652,4.653,213.114,264.636,221.535
0.370,31.075,4.632,4.634,213.108,264.664,221.554
0.372,31.116,4.617,4.619,213.098,264.700,221.570
0.373,31.165,4.610,4.611,213.085,264.744,221.584
0.375,31.221,4.614,4.611,213.069,264.797,221.595
0.377,31.286,4.628,4.618,213.048,264.858,221.601
0.378,31.359,4.645,4.631,213.023,264.927,221.602
0.380,31.442,4.664,4.647,212.993,265.004,221.597
0.381,31.535,4.679,4.663,212.958,265.089,221.584
0.383,31.639,4.686,4.678,212.918,265.182,221.562
0.384,31.754,4.681,4.689,212.871,265.283,221.532
0.386,31.879,4.664,4.695,212.819,265.391,221.494
0.388,32.014,4.639,4.697,212.763,265.505,221.450
0.389,32.156,4.609,4.696,212.704,265.625,221.401
0.391,32.305,4.579,4.694,212.642,265.750,221.349
0.392,32.459,4.552,4.691,212.578,265.879,221.296
0.394,32.616,4.533,4.688,212.515,266.012,221.243
0.396,32.775,4.525,4.686,212.451,266.149,221.191
0.397,32.934,4.526,4.685,212.389,266.288,221.143
0.399,33.093,4.534,4.685,212.329,266.428,221.100
0.400,33.250,4.546,4.685,212.272,266.570,221.064
0.402,33.404,4.560,4.684,212.220,266.712,221.036
0.403,33.554,4.574,4.683,212.172,266.854,221.017
0.405,33.702,4.585,4.682,212.131,266.994,221.010
0.407,33.846,4.593,4.680,212.095,267.134,221.014
0.408,33.988,4.600,4.679,212.065,267.272,221.026
0.410,34.128,4.607,4.681,212.039,267.408,221.045
0.411,34.266,4.616,4.688,212.017,267.542,221.069
0.413,34.401,4.629,4.700,211.998,267.674,221.095
0.415,34.534,4.646,4.720,211.981,267.804,221.121
0.416,34.664,4.669,4.747,211.966,267.930,221.145
0.418,34.790,4.695,4.779,211.952,268.054,221.165
0.419,34.912,4.722,4.814,211.938,268.175,221.178
0.421,35.030,4.749,4.848,211.923,268.292,221.182
0.422,35.145,4.772,4.880,211.907,268.405,221.176
0.424,35.258,4.790,4.905,211.888,268.515,221.157
0.426,35.371,4.802,4.923,211.867,268.620,221.122
0.427,35.487,4.807,4.934,211.842,268.721,221.072
0.429,35.607,4.809,4.941,211.814,268.818,221.006
0.430,35.731,4.811,4.946,211.783,268.910,220.928
0.432,35.859,4.813,4.953,211.751,268.997,220.840
0.434,35.990,4.819,4.962,211.717,269.079,220.744
0.435,36.121,4.830,4.977,211.683,269.156,220.643
0.437,36.252,4.846,4.999,211.649,269.227,220.539
0.438,36.380,4.866,5.025,211.615,269.292,220.434
0.440,36.504,4.886,5.054,211.583,269.352,220.330
0.441,36.622,4.904,5.085,211.552,269.406,220.231
0.443,36.730,4.918,5.116,211.523,269.454,220.138
0.445,36.828,4.924,5.146,211.497,269.495,220.053
0.446,36.912,4.923,5.173,211.475,269.530,219.980
0.448,36.981,4.914,5.197,211.457,269.558,219.919
0.449,37.035,4.902,5.217,211.442,269.580,219.872
0.451,37.075,4.889,5.234,211.431,269.596,219.837
0.453,37.103,4.877,5.246,211.423,269.607,219.813
0.454,37.121,4.868,5.255,211.417,269.614,219.798
0.456,37.129,4.866,5.258,211.414,269.618,219.791
0.457,37.132,4.869,5.258,211.411,269.619,219.790
0.459,37.137,4.877,5.254,211.410,269.618,219.795
0.460,37.146,4.887,5.247,211.409,269.615,219.804
0.462,37.158,4.897,5.238,211.407,269.612,219.815
0.464,37.171,4.906,5.229,211.405,269.609,219.828
0.465,37.185,4.913,5.219,211.402,269.606,219.841
0.467,37.197,4.915,5.209,211.397,269.606,219.852
0.468,37.208,4.915,5.199,211.390,269.607,219.860
0.470,37.219,4.912,5.189,211.381,269.611,219.865
0.472,37.232,4.909,5.181,211.370,269.617,219.866
0.473,37.246,4.905,5.173,211.358,269.625,219.865
0.475,37.261,4.902,5.166,211.346,269.633,219.862
0.476,37.276,4.900,5.160,211.335,269.643,219.859
0.478,37.289,4.900,5.155,211.326,269.652,219.855
0.479,37.301,4.900,5.151,211.319,269.660,219.851
0.481,37.310,4.901,5.149,211.315,269.667,219.848
0.483,37.315,4.902,5.148,211.315,269.673,219.846
0.484,37.322,4.902,5.148,211.321,269.676,219.847
0.486,37.334,4.901,5.150,211.332,269.676,219.851
0.487,37.353,4.900,5.153,211.350,269.672,219.859
0.489,37.382,4.897,5.158,211.376,269.665,219.871
0.491,37.422,4.894,5.164,211.409,269.653,219.888
0.492,37.469,4.889,5.171,211.449,269.637,219.909
0.494,37.521,4.885,5.178,211.492,269.620,219.932
0.495,37.574,4.880,5.187,211.535,269.602,219.956
0.497,37.624,4.875,5.196,211.576,269.586,219.979
0.498,37.666,4.869,5.204,211.611,269.573,220.000
0.500,37.698,4.864,5.209,211.637,269.564,220.016
0.502,37.715,4.857,5.209,211.651,269.562,220.026
0.503,37.721,4.851,5.203,211.650,269.568,220.028
0.505,37.747,4.844,5.190,211.631,269.583,220.021
0.506,37.798,4.836,5.167,211.591,269.610,220.003
0.508,37.879,4.827,5.137,211.527,269.650,219.972
0.509,37.994,4.815,5.103,211.436,269.704,219.927
0.511,38.147,4.798,5.069,211.315,269.775,219.866
0.513,38.339,4.776,5.036,211.164,269.863,219.789
0.514,38.564,4.748,5.008,210.987,269.967,219.698
0.516,38.816,4.711,4.988,210.789,270.087,219.595
0.517,39.092,4.668,4.978,210.576,270.222,219.485
0.519,39.384,4.625,4.974,210.353,270.370,219.368
0.521,39.688,4.587,4.975,210.126,270.532,219.248
0.522,39.999,4.560,4.979,209.898,270.707,219.128
0.524,40.311,4.550,4.984,209.676,270.892,219.009
0.525,40.621,4.564,4.987,209.465,271.089,218.896
0.527,40.925,4.604,4.987,209.270,271.295,218.790
0.528,41.218,4.666,4.985,209.095,271.510,218.694
0.530,41.498,4.742,4.985,208.947,271.734,218.611
0.532,41.766,4.826,4.987,208.831,271.965,218.544
0.533,42.021,4.911,4.994,208.750,272.202,218.494
0.535,42.271,4.990,5.008,208.704,272.445,218.460
0.536,42.518,5.056,5.030,208.686,272.691,218.440
0.538,42.765,5.110,5.062,208.693,272.938,218.429
0.540,43.014,5.155,5.103,208.721,273.185,218.427
0.541,43.263,5.195,5.150,208.764,273.430,218.429
0.543,43.510,5.234,5.204,208.818,273.671,218.432
0.544,43.753,5.275,5.263,208.879,273.907,218.434
0.546,43.990,5.322,5.326,208.942,274.135,218.432
0.547,44.218,5.378,5.393,209.003,274.355,218.423
0.549,44.435,5.439,5.460,209.057,274.564,218.404
0.551,44.638,5.502,5.525,209.099,274.760,218.372
0.552,44.828,5.564,5.586,209.125,274.942,218.324
0.554,45.008,5.622,5.641,209.131,275.108,218.257
0.555,45.181,5.672,5.686,209.114,275.258,218.171
0.557,45.353,5.713,5.720,209.078,275.392,218.069
0.559,45.528,5.746,5.746,209.026,275.512,217.954
0.560,45.705,5.774,5.768,208.960,275.619,217.830
0.562,45.884,5.800,5.791,208.882,275.714,217.699
0.563,46.064,5.828,5.819,208.797,275.799,217.564
0.565,46.243,5.861,5.856,208.706,275.873,217.429
0.566,46.418,5.901,5.907,208.613,275.939,217.297
0.568,46.585,5.948,5.970,208.520,275.998,217.171
0.570,46.741,5.999,6.039,208.430,276.051,217.055
0.571,46.883,6.050,6.109,208.346,276.098,216.951
0.573,47.007,6.096,6.172,208.271,276.142,216.863
0.574,47.110,6.135,6.222,208.207,276.184,216.794
0.576,47.189,6.163,6.253,208.157,276.223,216.746
0.578,47.249,6.177,6.261,208.120,276.262,216.718
0.579,47.295,6.180,6.252,208.095,276.299,216.709
0.581,47.336,6.176,6.231,208.079,276.336,216.715
0.582,47.378,6.168,6.204,208.072,276.372,216.736
0.584,47.426,6.160,6.178,208.071,276.407,216.768
0.585,47.480,6.156,6.159,208.074,276.443,216.809
0.587,47.541,6.159,6.153,208.081,276.478,216.858
0.589,47.607,6.168,6.158,208.089,276.514,216.913
0.590,47.675,6.181,6.170,208.097,276.551,216.970
0.592,47.744,6.195,6.187,208.103,276.588,217.028
0.593,47.813,6.208,6.203,208.106,276.626,217.085
0.595,47.879,6.217,6.216,208.103,276.665,217.139
0.597,47.943,6.220,6.220,208.094,276.705,217.187
0.598,48.005,6.215,6.215,208.077,276.747,217.229
0.600,48.065,6.205,6.204,208.054,276.791,217.265
0.601,48.126,6.191,6.188,208.026,276.835,217.295
0.603,48.188,6.174,6.171,207.994,276.881,217.321
0.604,48.250,6.158,6.155,207.958,276.927,217.343
0.606,48.314,6.143,6.143,207.920,276.975,217.361
0.608,48.378,6.132,6.138,207.881,277.023,217.375
0.609,48.442,6.122,6.137,207.842,277.072,217.387
0.611,48.506,6.113,6.139,207.803,277.122,217.397
0.612,48.569,6.103,6.143,207.766,277.173,217.405
0.614,48.631,6.091,6.145,207.731,277.223,217.412
0.616,48.691,6.076,6.144,207.700,277.275,217.418
0.617,48.749,6.055,6.139,207.674,277.326,217.424
0.619,48.805,6.030,6.128,207.653,277.378,217.430
0.620,48.859,6.001,6.112,207.637,277.429,217.437
0.622,48.912,5.970,6.094,207.626,277.481,217.443
0.623,48.964,5.938,6.073,207.618,277.531,217.449
0.625,49.014,5.906,6.050,207.613,277.580,217.455
0.627,49.062,5.876,6.026,207.611,277.628,217.460
0.628,49.109,5.849,6.003,207.610,277.675,217.465
0.630,49.153,5.824,5.980,207.611,277.719,217.469
0.631,49.195,5.801,5.958,207.613,277.761,217.471
0.633,49.235,5.780,5.937,207.615,277.801,217.473
0.634,49.272,5.762,5.916,207.617,277.838,217.473
0.636,49.305,5.745,5.897,207.617,277.871,217.471
0.638,49.335,5.730,5.879,207.616,277.901,217.467
0.639,49.363,5.716,5.862,207.612,277.927,217.462
0.641,49.388,5.704,5.847,207.606,277.951,217.455
0.642,49.413,5.692,5.833,207.597,277.973,217.446
0.644,49.440,5.682,5.819,207.585,277.995,217.437
