"T","Distance","Radius","FreeRadius","X","Y","Z"
0.000,0.000,3.090,3.090,206.109,209.569,238.336
0.001,0.279,3.211,3.211,206.346,209.477,238.451
0.002,0.556,3.331,3.331,206.581,209.385,238.565
0.004,0.828,3.447,3.447,206.812,209.295,238.677
0.005,1.094,3.559,3.559,207.037,209.208,238.786
0.006,1.350,3.665,3.665,207.255,209.123,238.892
0.007,1.595,3.763,3.763,207.463,209.042,238.992
0.008,1.826,3.852,3.852,207.659,208.966,239.088
0.010,2.040,3.931,3.931,207.841,208.895,239.176
0.011,2.237,3.997,3.997,208.008,208.830,239.257
0.012,2.413,4.052,4.052,208.158,208.772,239.330
0.013,2.566,4.095,4.095,208.287,208.721,239.393
0.014,2.694,4.130,4.130,208.396,208.679,239.446
0.015,2.794,4.158,4.158,208.481,208.646,239.488
0.017,2.870,4.180,4.180,208.545,208.622,239.520
0.018,2.922,4.198,4.198,208.590,208.605,239.542
0.019,2.955,4.213,4.213,208.617,208.594,239.555
0.020,2.970,4.227,4.227,208.630,208.588,239.562
0.021,2.971,4.242,4.242,208.631,208.587,239.562
0.023,2.982,4.256,4.256,208.622,208.589,239.557
0.024,3.001,4.271,4.271,208.605,208.594,239.549
0.025,3.025,4.285,4.285,208.584,208.599,239.538
0.026,3.053,4.298,4.298,208.560,208.604,239.525
0.027,3.081,4.309,4.309,208.536,208.609,239.512
0.029,3.107,4.319,4.319,208.514,208.612,239.499
0.030,3.127,4.327,4.327,208.496,208.611,239.487
0.031,3.143,4.333,4.333,208.484,208.608,239.478
0.032,3.156,4.336,4.336,208.476,208.601,239.471
0.033,3.167,4.337,4.337,208.473,208.592,239.465
0.035,3.180,4.336,4.336,208.473,208.580,239.461
0.036,3.195,4.333,4.333,208.475,208.566,239.458
0.037,3.213,4.330,4.330,208.481,208.549,239.457
0.038,3.233,4.326,4.326,208.488,208.530,239.456
0.039,3.255,4.321,4.321,208.497,208.510,239.457
0.040,3.279,4.316,4.316,208.507,208.487,239.458
0.042,3.305,4.311,4.311,208.517,208.464,239.460
0.043,3.333,4.306,4.306,208.527,208.439,239.462
0.044,3.360,4.302,4.302,208.537,208.412,239.465
0.045,3.389,4.298,4.298,208.545,208.385,239.469
0.046,3.419,4.295,4.295,208.554,208.357,239.474
0.048,3.451,4.292,4.292,208.563,208.328,239.482
0.049,3.485,4.290,4.290,208.572,208.297,239.495
0.050,3.522,4.289,4.289,208.582,208.266,239.512
0.051,3.564,4.288,4.288,208.593,208.233,239.535
0.052,3.612,4.289,4.289,208.606,208.199,239.566
0.054,3.666,4.292,4.292,208.621,208.163,239.604
0.055,3.729,4.297,4.297,208.639,208.127,239.652
0.056,3.801,4.305,4.305,208.660,208.089,239.710
0.057,3.885,4.315,4.315,208.684,208.049,239.780
0.058,3.980,4.330,4.330,208.711,208.008,239.861
0.060,4.088,4.348,4.348,208.742,207.966,239.955
0.061,4.205,4.371,4.371,208.777,207.923,240.058
0.062,4.329,4.399,4.399,208.813,207.880,240.169
0.063,4.457,4.430,4.430,208.851,207.838,240.284
0.064,4.587,4.463,4.463,208.889,207.797,240.401
0.065,4.715,4.497,4.497,208.926,207.759,240.518
0.067,4.840,4.530,4.530,208.963,207.723,240.631
0.068,4.957,4.562,4.562,208.998,207.691,240.739
0.069,5.065,4.590,4.590,209.029,207.663,240.838
0.070,5.161,4.614,4.614,209.058,207.640,240.927
0.071,5.241,4.631,4.631,209.081,207.623,241.002
0.073,5.304,4.643,4.643,209.100,207.612,241.061
0.074,5.348,4.650,4.650,209.113,207.607,241.102
0.075,5.375,4.653,4.653,209.121,207.607,241.128
0.076,5.389,4.654,4.654,209.125,207.611,241.141
0.077,5.396,4.653,4.653,209.126,207.617,241.144
0.079,5.404,4.651,4.651,209.125,207.623,241.138
0.080,5.416,4.650,4.650,209.123,207.628,241.127
0.081,5.431,4.651,4.651,209.121,207.630,241.113
0.082,5.446,4.653,4.653,209.119,207.628,241.099
0.083,5.461,4.658,4.658,209.119,207.620,241.086
0.085,5.479,4.664,4.664,209.122,207.604,241.078
0.086,5.505,4.671,4.671,209.128,207.579,241.076
0.087,5.543,4.678,4.678,209.138,207.543,241.084
0.088,5.597,4.685,4.685,209.154,207.496,241.104
0.089,5.665,4.692,4.692,209.174,207.437,241.134
0.090,5.745,4.697,4.697,209.197,207.371,241.172
0.092,5.835,4.700,4.700,209.223,207.298,241.218
0.093,5.931,4.702,4.702,209.251,207.221,241.269
0.094,6.032,4.702,4.702,209.279,207.142,241.324
0.095,6.133,4.700,4.700,209.306,207.063,241.381
0.096,6.233,4.698,4.698,209.332,206.985,241.439
0.098,6.329,4.695,4.695,209.356,206.912,241.495
0.099,6.417,4.690,4.690,209.376,206.845,241.549
0.100,6.496,4.686,4.686,209.391,206.786,241.598
0.101,6.562,4.680,4.680,209.402,206.737,241.641
0.102,6.613,4.675,4.675,209.406,206.700,241.677
0.104,6.651,4.670,4.670,209.404,206.674,241.704
0.105,6.677,4.664,4.664,209.398,206.659,241.725
0.106,6.695,4.659,4.659,209.390,206.651,241.739
0.107,6.707,4.654,4.654,209.381,206.651,241.747
0.108,6.718,4.648,4.648,209.372,206.656,241.749
0.110,6.729,4.644,4.644,209.364,206.664,241.746
0.111,6.742,4.639,4.639,209.360,206.674,241.739
0.112,6.758,4.635,4.635,209.360,206.685,241.728
0.113,6.776,4.631,4.631,209.367,206.694,241.714
0.114,6.799,4.628,4.628,209.381,206.701,241.696
0.115,6.829,4.625,4.625,209.404,206.703,241.677
0.117,6.869,4.623,4.623,209.437,206.700,241.655
0.118,6.918,4.622,4.622,209.479,206.690,241.634
0.119,6.973,4.621,4.621,209.530,206.674,241.617
0.120,7.035,4.622,4.622,209.585,206.651,241.605
0.121,7.100,4.623,4.623,209.644,206.622,241.602
0.123,7.171,4.626,4.626,209.705,206.587,241.612
0.124,7.247,4.629,4.629,209.764,206.546,241.637
0.125,7.332,4.631,4.631,209.820,206.499,241.679
0.126,7.429,4.631,4.631,209.871,206.446,241.743
0.127,7.543,4.630,4.630,209.914,206.387,241.831
0.129,7.679,4.625,4.625,209.948,206.323,241.945
0.130,7.841,4.616,4.616,209.971,206.253,242.090
0.131,8.034,4.603,4.603,209.980,206.177,242.267
0.132,8.258,4.585,4.585,209.975,206.097,242.476
0.133,8.509,4.562,4.562,209.957,206.012,242.712
0.135,8.782,4.537,4.537,209.930,205.924,242.969
0.136,9.071,4.511,4.511,209.894,205.835,243.242
0.137,9.371,4.487,4.487,209.851,205.744,243.524
0.138,9.677,4.465,4.465,209.803,205.653,243.812
0.139,9.981,4.449,4.449,209.753,205.564,244.099
0.140,10.280,4.439,4.439,209.701,205.477,244.379
0.142,10.566,4.438,4.438,209.650,205.392,244.648
0.143,10.834,4.447,4.447,209.602,205.313,244.900
0.144,11.079,4.463,4.463,209.559,205.238,245.128
0.145,11.294,4.485,4.485,209.522,205.169,245.329
0.146,11.477,4.512,4.512,209.492,205.108,245.499
0.148,11.629,4.540,4.540,209.469,205.053,245.639
0.149,11.754,4.569,4.569,209.452,205.004,245.753
0.150,11.854,4.596,4.596,209.439,204.962,245.842
0.151,11.932,4.619,4.619,209.430,204.925,245.910
0.152,11.990,4.637,4.637,209.424,204.894,245.959
0.154,12.031,4.650,4.650,209.419,204.868,245.991
0.155,12.059,4.658,4.658,209.416,204.847,246.008
0.156,12.077,4.662,4.662,209.412,204.830,246.014
0.157,12.090,4.662,4.662,209.408,204.818,246.011
0.158,12.104,4.659,4.659,209.401,204.810,246.001
0.160,12.122,4.654,4.654,209.391,204.806,245.986
0.161,12.143,4.648,4.648,209.379,204.805,245.969
0.162,12.165,4.641,4.641,209.364,204.807,245.953
0.163,12.185,4.634,4.634,209.350,204.810,245.939
0.164,12.201,4.627,4.627,209.338,204.812,245.929
0.165,12.209,4.622,4.622,209.331,204.813,245.925
0.167,12.214,4.619,4.619,209.330,204.812,245.930
0.168,12.231,4.619,4.619,209.337,204.807,245.945
0.169,12.265,4.622,4.622,209.354,204.798,245.972
0.170,12.319,4.630,4.630,209.384,204.782,246.013
0.171,12.395,4.642,4.642,209.428,204.759,246.071
0.173,12.498,4.660,4.660,209.489,204.728,246.148
0.174,12.629,4.684,4.684,209.568,204.687,246.245
0.175,12.791,4.714,4.714,209.666,204.636,246.363
0.176,12.981,4.750,4.750,209.782,204.576,246.501
0.177,13.193,4.792,4.792,209.912,204.508,246.655
0.179,13.422,4.839,4.839,210.052,204.435,246.819
0.180,13.661,4.893,4.893,210.200,204.358,246.992
0.181,13.907,4.952,4.952,210.352,204.279,247.168
0.182,14.153,5.016,5.016,210.504,204.200,247.344
0.183,14.394,5.086,5.086,210.653,204.122,247.516
0.185,14.624,5.159,5.159,210.796,204.048,247.681
0.186,14.838,5.232,5.232,210.929,203.979,247.834
0.187,15.031,5.303,5.303,211.050,203.916,247.972
0.188,15.198,5.371,5.371,211.153,203.863,248.090
0.189,15.333,5.432,5.432,211.238,203.820,248.186
0.190,15.436,5.485,5.485,211.303,203.787,248.259
0.192,15.511,5.527,5.527,211.351,203.763,248.312
0.193,15.560,5.556,5.556,211.382,203.748,248.346
0.194,15.587,5.573,5.573,211.400,203.740,248.365
0.195,15.594,5.580,5.580,211.406,203.739,248.369
0.196,15.604,5.579,5.579,211.402,203.743,248.361
0.198,15.628,5.571,5.571,211.389,203.751,248.343
0.199,15.663,5.558,5.558,211.370,203.763,248.316
0.200,15.706,5.542,5.542,211.346,203.778,248.285
0.201,15.753,5.525,5.525,211.318,203.794,248.249
0.202,15.803,5.509,5.509,211.290,203.811,248.212
0.204,15.852,5.494,5.494,211.262,203.828,248.175
0.205,15.899,5.482,5.482,211.236,203.843,248.140
0.206,15.941,5.471,5.471,211.213,203.858,248.108
0.207,15.977,5.463,5.463,211.193,203.870,248.080
0.208,16.006,5.457,5.457,211.177,203.879,248.058
0.210,16.025,5.453,5.453,211.166,203.886,248.043
0.211,16.035,5.452,5.452,211.161,203.889,248.035
0.212,16.037,5.454,5.454,211.163,203.888,248.037
0.213,16.053,5.458,5.458,211.172,203.883,248.049
0.214,16.084,5.465,5.465,211.189,203.872,248.073
0.215,16.132,5.475,5.475,211.215,203.856,248.109
0.217,16.197,5.489,5.489,211.251,203.834,248.159
0.218,16.282,5.507,5.507,211.297,203.805,248.224
0.219,16.385,5.530,5.530,211.354,203.770,248.303
0.220,16.505,5.557,5.557,211.419,203.729,248.395
0.221,16.638,5.589,5.589,211.491,203.684,248.497
0.223,16.781,5.626,5.626,211.569,203.636,248.607
0.224,16.930,5.669,5.669,211.650,203.584,248.721
0.225,17.083,5.715,5.715,211.733,203.531,248.839
0.226,17.237,5.764,5.764,211.816,203.478,248.956
0.227,17.388,5.813,5.813,211.897,203.425,249.072
0.229,17.533,5.862,5.862,211.975,203.373,249.183
0.230,17.669,5.909,5.909,212.049,203.324,249.287
0.231,17.794,5.953,5.953,212.115,203.278,249.381
0.232,17.904,5.993,5.993,212.174,203.236,249.464
0.233,17.997,6.026,6.026,212.223,203.199,249.534
0.235,18.074,6.054,6.054,212.264,203.167,249.591
0.236,18.138,6.077,6.077,212.297,203.139,249.637
0.237,18.189,6.095,6.095,212.324,203.116,249.674
0.238,18.229,6.109,6.108,212.345,203.095,249.702
0.239,18.260,6.119,6.119,212.360,203.078,249.722
0.240,18.283,6.126,6.126,212.372,203.065,249.736
0.242,18.300,6.130,6.130,212.381,203.053,249.746
0.243,18.312,6.133,6.133,212.388,203.045,249.751
0.244,18.321,6.133,6.134,212.393,203.038,249.754
0.245,18.328,6.133,6.133,212.398,203.032,249.755
0.246,18.335,6.132,6.132,212.403,203.029,249.756
0.248,18.342,6.130,6.131,212.410,203.026,249.758
0.249,18.351,6.128,6.129,212.417,203.024,249.761
0.250,18.359,6.127,6.128,212.425,203.022,249.764
0.251,18.367,6.127,6.127,212.432,203.021,249.767
0.252,18.375,6.127,6.127,212.439,203.021,249.771
0.254,18.382,6.130,6.129,212.444,203.020,249.775
0.255,18.387,6.133,6.132,212.448,203.019,249.778
0.256,18.390,6.137,6.135,212.449,203.018,249.781
0.257,18.394,6.142,6.139,212.448,203.017,249.784
0.258,18.399,6.146,6.143,212.443,203.015,249.786
0.260,18.409,6.150,6.147,212.434,203.012,249.787
0.261,18.423,6.152,6.150,212.420,203.008,249.787
0.262,18.442,6.154,6.153,212.402,203.002,249.785
0.263,18.464,6.153,6.154,212.381,202.997,249.783
0.264,18.487,6.150,6.153,212.358,202.991,249.781
0.265,18.508,6.147,6.152,212.338,202.986,249.780
0.267,18.526,6.142,6.150,212.321,202.983,249.780
0.268,18.537,6.139,6.148,212.310,202.981,249.782
0.269,18.543,6.136,6.146,212.307,202.982,249.787
0.270,18.556,6.135,6.144,212.315,202.987,249.796
0.271,18.582,6.136,6.142,212.335,202.996,249.809
0.273,18.624,6.141,6.142,212.371,203.010,249.827
0.274,18.685,6.149,6.142,212.424,203.029,249.850
0.275,18.767,6.161,6.145,212.496,203.055,249.880
0.276,18.874,6.175,6.149,212.590,203.087,249.918
0.277,19.002,6.190,6.157,212.704,203.125,249.962
0.279,19.148,6.205,6.168,212.834,203.166,250.015
0.280,19.308,6.219,6.183,212.977,203.208,250.076
0.281,19.480,6.231,6.203,213.127,203.249,250.146
0.282,19.658,6.241,6.228,213.282,203.287,250.225
0.283,19.840,6.247,6.259,213.438,203.319,250.314
0.285,20.023,6.248,6.294,213.591,203.343,250.412
0.286,20.206,6.244,6.330,213.737,203.357,250.521
0.287,20.386,6.235,6.365,213.872,203.359,250.641
0.288,20.564,6.220,6.394,213.993,203.346,250.771
0.289,20.742,6.199,6.415,214.095,203.317,250.913
0.290,20.922,6.172,6.424,214.175,203.268,251.067
0.292,21.109,6.138,6.419,214.232,203.201,251.232
0.293,21.305,6.096,6.395,214.269,203.118,251.406
0.294,21.512,6.047,6.350,214.288,203.022,251.588
0.295,21.728,5.991,6.287,214.291,202.916,251.776
0.296,21.951,5.930,6.211,214.281,202.802,251.968
0.298,22.180,5.866,6.124,214.261,202.683,252.162
0.299,22.411,5.799,6.030,214.232,202.562,252.357
0.300,22.642,5.731,5.935,214.198,202.442,252.551
0.301,22.869,5.664,5.841,214.160,202.326,252.743
0.302,23.089,5.598,5.752,214.121,202.215,252.929
0.304,23.299,5.535,5.673,214.084,202.114,253.110
0.305,23.497,5.476,5.604,214.050,202.024,253.282
0.306,23.679,5.420,5.546,214.022,201.947,253.446
0.307,23.850,5.369,5.496,213.999,201.882,253.601
0.308,24.009,5.322,5.454,213.980,201.826,253.749
0.310,24.159,5.279,5.419,213.966,201.779,253.891
0.311,24.301,5.241,5.389,213.955,201.738,254.026
0.312,24.437,5.207,5.364,213.948,201.703,254.157
0.313,24.567,5.177,5.342,213.944,201.671,254.283
0.314,24.694,5.152,5.323,213.943,201.640,254.406
0.315,24.818,5.131,5.305,213.944,201.610,254.527
0.317,24.940,5.115,5.290,213.947,201.579,254.645
0.318,25.062,5.102,5.278,213.951,201.545,254.762
0.319,25.186,5.093,5.269,213.957,201.506,254.879
0.320,25.311,5.086,5.262,213.964,201.462,254.996
0.321,25.438,5.083,5.258,213.972,201.414,255.114
0.323,25.567,5.083,5.258,213.981,201.362,255.232
0.324,25.698,5.084,5.260,213.991,201.308,255.350
0.325,25.831,5.088,5.266,214.002,201.253,255.470
0.326,25.964,5.093,5.272,214.015,201.198,255.591
0.327,26.098,5.098,5.279,214.030,201.144,255.712
0.329,26.232,5.104,5.285,214.046,201.092,255.835
0.330,26.367,5.109,5.289,214.064,201.043,255.960
0.331,26.502,5.113,5.289,214.084,200.999,256.086
0.332,26.637,5.114,5.284,214.106,200.960,256.213
0.333,26.773,5.114,5.274,214.130,200.928,256.343
0.335,26.909,5.110,5.256,214.156,200.903,256.474
0.336,27.045,5.104,5.233,214.184,200.886,256.606
0.337,27.180,5.095,5.205,214.213,200.874,256.737
0.338,27.312,5.083,5.175,214.243,200.868,256.866
0.339,27.441,5.070,5.144,214.273,200.867,256.992
0.340,27.566,5.055,5.114,214.302,200.869,257.113
0.342,27.684,5.038,5.086,214.331,200.874,257.227
0.343,27.795,5.020,5.062,214.358,200.881,257.334
0.344,27.897,5.001,5.044,214.383,200.890,257.433
0.345,27.988,4.981,5.031,214.406,200.899,257.521
0.346,28.067,4.961,5.023,214.426,200.908,257.597
0.348,28.134,4.941,5.019,214.442,200.916,257.661
0.349,28.185,4.920,5.017,214.454,200.922,257.711
0.350,28.224,4.900,5.016,214.464,200.927,257.748
0.351,28.254,4.881,5.016,214.472,200.929,257.776
0.352,28.277,4.863,5.015,214.481,200.930,257.798
0.354,28.298,4.845,5.013,214.492,200.929,257.816
0.355,28.321,4.830,5.007,214.506,200.927,257.834
0.356,28.350,4.815,4.999,214.526,200.924,257.853
0.357,28.386,4.803,4.989,214.553,200.920,257.878
0.358,28.435,4.791,4.977,214.589,200.915,257.911
0.360,28.498,4.781,4.963,214.634,200.909,257.954
0.361,28.579,4.773,4.948,214.692,200.902,258.011
0.362,28.681,4.766,4.932,214.763,200.894,258.084
0.363,28.808,4.761,4.915,214.849,200.886,258.176
0.364,28.957,4.757,4.898,214.949,200.878,258.287
0.365,29.125,4.754,4.881,215.060,200.869,258.412
0.367,29.308,4.752,4.864,215.181,200.860,258.549
0.368,29.502,4.750,4.849,215.309,200.851,258.695
0.369,29.702,4.748,4.835,215.441,200.842,258.845
0.370,29.906,4.745,4.824,215.576,200.832,258.997
0.371,30.108,4.740,4.816,215.710,200.823,259.148
0.373,30.305,4.733,4.812,215.842,200.813,259.294
0.374,30.492,4.724,4.811,215.969,200.803,259.432
0.375,30.667,4.712,4.815,216.088,200.794,259.559
0.376,30.824,4.698,4.822,216.198,200.784,259.671
0.377,30.960,4.682,4.832,216.296,200.775,259.765
0.379,31.074,4.667,4.844,216.381,200.765,259.841
0.380,31.169,4.653,4.856,216.455,200.757,259.899
0.381,31.247,4.641,4.868,216.519,200.748,259.942
0.382,31.311,4.632,4.878,216.575,200.741,259.972
0.383,31.363,4.627,4.886,216.624,200.734,259.990
0.385,31.409,4.627,4.890,216.669,200.728,259.997
0.386,31.449,4.632,4.891,216.709,200.724,259.995
0.387,31.489,4.641,4.889,216.747,200.720,259.987
0.388,31.529,4.651,4.884,216.785,200.719,259.974
0.389,31.570,4.662,4.877,216.823,200.719,259.956
0.390,31.615,4.673,4.868,216.864,200.720,259.937
0.392,31.664,4.682,4.857,216.908,200.724,259.918
0.393,31.717,4.688,4.845,216.957,200.729,259.901
0.394,31.775,4.690,4.833,217.014,200.737,259.886
0.395,31.840,4.686,4.820,217.077,200.746,259.878
0.396,31.914,4.678,4.808,217.151,200.756,259.876
0.398,31.999,4.667,4.797,217.234,200.767,259.883
0.399,32.097,4.655,4.788,217.330,200.780,259.902
0.400,32.211,4.643,4.781,217.439,200.793,259.933
0.401,32.344,4.633,4.779,217.563,200.807,259.979
0.402,32.498,4.626,4.780,217.703,200.821,260.042
0.404,32.675,4.623,4.786,217.860,200.835,260.123
0.405,32.879,4.625,4.798,218.036,200.849,260.224
0.406,33.111,4.635,4.816,218.231,200.863,260.348
0.407,33.372,4.651,4.840,218.447,200.876,260.495
0.408,33.658,4.675,4.869,218.680,200.888,260.661
0.410,33.962,4.707,4.905,218.924,200.900,260.842
0.411,34.280,4.748,4.945,219.176,200.911,261.036
0.412,34.605,4.797,4.992,219.431,200.921,261.237
0.413,34.932,4.856,5.043,219.686,200.930,261.441
0.414,35.254,4.924,5.100,219.935,200.937,261.646
0.415,35.567,5.002,5.162,220.174,200.943,261.847
0.417,35.863,5.087,5.227,220.399,200.947,262.040
0.418,36.138,5.175,5.293,220.606,200.950,262.221
0.419,36.386,5.264,5.358,220.790,200.951,262.386
0.420,36.600,5.351,5.421,220.948,200.949,262.531
0.421,36.777,5.432,5.478,221.074,200.946,262.654
0.423,36.917,5.505,5.530,221.172,200.941,262.755
0.424,37.026,5.566,5.572,221.244,200.935,262.836
0.425,37.105,5.613,5.604,221.293,200.928,262.898
0.426,37.159,5.645,5.626,221.320,200.921,262.944
0.427,37.192,5.664,5.641,221.330,200.915,262.975
0.429,37.212,5.672,5.648,221.325,200.909,262.993
0.430,37.231,5.670,5.652,221.307,200.905,263.001
0.431,37.259,5.661,5.653,221.279,200.904,262.999
0.432,37.295,5.645,5.653,221.245,200.904,262.990
0.433,37.336,5.624,5.655,221.206,200.908,262.975
0.435,37.381,5.600,5.659,221.166,200.916,262.956
0.436,37.426,5.575,5.668,221.127,200.928,262.936
0.437,37.471,5.549,5.680,221.091,200.942,262.915
0.438,37.512,5.523,5.693,221.059,200.959,262.895
0.439,37.548,5.499,5.706,221.033,200.975,262.877
0.440,37.577,5.477,5.717,221.012,200.990,262.863
0.442,37.597,5.458,5.723,220.999,201.002,262.853
0.443,37.607,5.442,5.725,220.995,201.010,262.849
0.444,37.614,5.432,5.719,221.001,201.011,262.852
0.445,37.635,5.426,5.705,221.018,201.005,262.864
0.446,37.674,5.427,5.684,221.047,200.990,262.885
0.448,37.734,5.433,5.658,221.090,200.964,262.917
0.449,37.816,5.444,5.631,221.148,200.926,262.962
0.450,37.923,5.461,5.605,221.221,200.874,263.020
0.451,38.053,5.482,5.583,221.308,200.810,263.092
0.452,38.203,5.508,5.568,221.406,200.734,263.177
0.454,38.369,5.539,5.562,221.510,200.650,263.276
0.455,38.549,5.574,5.570,221.618,200.559,263.387
0.456,38.738,5.613,5.591,221.724,200.463,263.510
0.457,38.934,5.655,5.625,221.827,200.364,263.645
0.458,39.135,5.701,5.669,221.921,200.264,263.791
0.460,39.338,5.750,5.721,222.003,200.166,263.949
0.461,39.542,5.802,5.779,222.070,200.071,264.117
0.462,39.747,5.855,5.841,222.117,199.982,264.295
0.463,39.954,5.911,5.904,222.141,199.900,264.484
0.464,40.165,5.967,5.966,222.139,199.827,264.682
0.465,40.381,6.025,6.026,222.110,199.765,264.887
0.467,40.605,6.084,6.083,222.058,199.712,265.098
0.468,40.834,6.141,6.136,221.986,199.667,265.311
0.469,41.066,6.197,6.187,221.898,199.630,265.523
0.470,41.299,6.250,6.236,221.799,199.598,265.731
0.471,41.529,6.299,6.283,221.690,199.572,265.932
0.473,41.753,6.343,6.329,221.578,199.550,266.124
0.474,41.966,6.382,6.373,221.464,199.531,266.303
0.475,42.164,6.413,6.416,221.353,199.514,266.466
0.476,42.342,6.438,6.459,221.250,199.499,266.611
0.477,42.498,6.456,6.501,221.156,199.483,266.734
0.479,42.625,6.468,6.541,221.077,199.467,266.833
0.480,42.724,6.477,6.578,221.014,199.449,266.906
0.481,42.798,6.483,6.612,220.966,199.429,266.958
0.482,42.852,6.486,6.642,220.931,199.407,266.994
0.483,42.891,6.489,6.669,220.908,199.384,267.016
0.485,42.922,6.491,6.690,220.895,199.359,267.029
0.486,42.951,6.495,6.706,220.892,199.332,267.038
