"T","Distance","Radius","FreeRadius","X","Y","Z"
0.000,0.000,2.068,2.068,186.135,172.870,194.819
0.001,0.336,2.256,2.256,185.827,172.897,194.949
0.002,0.668,2.442,2.442,185.521,172.923,195.078
0.004,0.996,2.625,2.625,185.220,172.949,195.205
0.005,1.314,2.802,2.802,184.928,172.975,195.329
0.006,1.622,2.972,2.972,184.646,173.000,195.448
0.007,1.915,3.133,3.133,184.377,173.025,195.562
0.009,2.191,3.284,3.284,184.124,173.049,195.669
0.010,2.447,3.422,3.422,183.889,173.071,195.770
0.011,2.681,3.547,3.547,183.675,173.093,195.861
0.012,2.889,3.657,3.657,183.484,173.114,195.943
0.014,3.069,3.753,3.753,183.320,173.133,196.014
0.015,3.218,3.837,3.837,183.185,173.151,196.073
0.016,3.334,3.907,3.907,183.080,173.167,196.119
0.017,3.419,3.966,3.966,183.004,173.182,196.154
0.018,3.477,4.013,4.013,182.953,173.195,196.178
0.020,3.512,4.049,4.049,182.922,173.205,196.193
0.021,3.529,4.074,4.074,182.909,173.213,196.200
0.022,3.535,4.090,4.090,182.909,173.219,196.200
0.023,3.547,4.099,4.099,182.918,173.223,196.195
0.025,3.565,4.102,4.102,182.934,173.224,196.185
0.026,3.587,4.102,4.102,182.952,173.221,196.173
0.027,3.609,4.101,4.101,182.968,173.216,196.159
0.028,3.629,4.100,4.100,182.979,173.208,196.145
0.030,3.646,4.101,4.101,182.981,173.196,196.133
0.031,3.667,4.107,4.107,182.971,173.181,196.122
0.032,3.698,4.119,4.119,182.948,173.162,196.114
0.033,3.738,4.134,4.134,182.914,173.141,196.109
0.034,3.786,4.153,4.153,182.872,173.118,196.106
0.036,3.842,4.174,4.174,182.822,173.093,196.106
0.037,3.903,4.196,4.196,182.767,173.067,196.109
0.038,3.967,4.219,4.219,182.709,173.040,196.114
0.039,4.034,4.241,4.241,182.649,173.013,196.122
0.041,4.101,4.262,4.262,182.588,172.986,196.132
0.042,4.166,4.281,4.281,182.530,172.960,196.145
0.043,4.228,4.298,4.298,182.474,172.935,196.160
0.044,4.286,4.312,4.312,182.425,172.912,196.178
0.046,4.338,4.325,4.325,182.382,172.891,196.198
0.047,4.384,4.335,4.335,182.346,172.873,196.220
0.048,4.425,4.344,4.344,182.317,172.857,196.244
0.049,4.461,4.351,4.351,182.294,172.843,196.269
0.050,4.494,4.356,4.356,182.277,172.831,196.294
0.052,4.523,4.360,4.360,182.264,172.821,196.318
0.053,4.549,4.363,4.363,182.257,172.814,196.342
0.054,4.572,4.364,4.364,182.253,172.808,196.365
0.055,4.593,4.364,4.364,182.252,172.804,196.385
0.057,4.611,4.363,4.363,182.255,172.802,196.402
0.058,4.626,4.362,4.362,182.259,172.802,196.417
0.059,4.638,4.359,4.359,182.265,172.803,196.427
0.060,4.648,4.357,4.357,182.273,172.806,196.433
0.062,4.657,4.354,4.354,182.280,172.810,196.435
0.063,4.666,4.350,4.350,182.288,172.815,196.434
0.064,4.676,4.347,4.347,182.295,172.820,196.430
0.065,4.685,4.344,4.344,182.302,172.824,196.425
0.067,4.692,4.342,4.342,182.306,172.828,196.420
0.068,4.698,4.340,4.340,182.308,172.831,196.416
0.069,4.701,4.340,4.340,182.308,172.832,196.413
0.070,4.705,4.340,4.340,182.304,172.830,196.414
0.071,4.714,4.341,4.341,182.296,172.826,196.418
0.073,4.731,4.344,4.344,182.284,172.818,196.426
0.074,4.756,4.347,4.347,182.267,172.807,196.440
0.075,4.791,4.351,4.351,182.244,172.791,196.461
0.076,4.835,4.355,4.355,182.216,172.771,196.489
0.078,4.887,4.358,4.358,182.184,172.747,196.523
0.079,4.946,4.361,4.361,182.148,172.721,196.561
0.080,5.010,4.363,4.363,182.110,172.691,196.602
0.081,5.076,4.362,4.362,182.070,172.660,196.646
0.083,5.145,4.361,4.361,182.030,172.628,196.691
0.084,5.213,4.358,4.358,181.991,172.596,196.736
0.085,5.279,4.353,4.353,181.953,172.563,196.779
0.086,5.342,4.349,4.349,181.918,172.532,196.821
0.087,5.399,4.343,4.343,181.887,172.501,196.859
0.089,5.450,4.338,4.338,181.861,172.473,196.893
0.090,5.493,4.333,4.333,181.840,172.448,196.921
0.091,5.528,4.328,4.328,181.826,172.426,196.943
0.092,5.555,4.324,4.324,181.817,172.406,196.959
0.094,5.576,4.321,4.321,181.811,172.389,196.969
0.095,5.592,4.319,4.319,181.809,172.373,196.975
0.096,5.607,4.317,4.317,181.808,172.359,196.976
0.097,5.621,4.316,4.316,181.808,172.345,196.972
0.099,5.636,4.316,4.316,181.808,172.332,196.965
0.100,5.652,4.316,4.316,181.806,172.319,196.955
0.101,5.672,4.316,4.316,181.801,172.305,196.942
0.102,5.695,4.317,4.317,181.792,172.291,196.927
0.103,5.722,4.318,4.318,181.778,172.275,196.910
0.105,5.755,4.316,4.316,181.758,172.257,196.891
0.106,5.794,4.311,4.311,181.731,172.236,196.872
0.107,5.841,4.302,4.302,181.696,172.211,196.852
0.108,5.900,4.287,4.287,181.650,172.179,196.835
0.110,5.971,4.265,4.265,181.594,172.139,196.820
0.111,6.057,4.235,4.235,181.524,172.087,196.810
0.112,6.162,4.197,4.197,181.441,172.023,196.805
0.113,6.288,4.151,4.151,181.343,171.944,196.807
0.115,6.438,4.101,4.101,181.229,171.848,196.818
0.116,6.614,4.051,4.051,181.097,171.733,196.837
0.117,6.820,4.003,4.003,180.945,171.597,196.867
0.118,7.058,3.961,3.961,180.774,171.438,196.910
0.119,7.331,3.928,3.928,180.581,171.254,196.965
0.121,7.639,3.907,3.907,180.366,171.044,197.034
0.122,7.978,3.902,3.902,180.132,170.812,197.115
0.123,8.339,3.911,3.911,179.886,170.564,197.206
0.124,8.716,3.932,3.932,179.631,170.304,197.303
0.126,9.100,3.961,3.961,179.372,170.039,197.406
0.127,9.485,3.997,3.997,179.113,169.773,197.510
0.128,9.863,4.035,4.035,178.860,169.512,197.614
0.129,10.227,4.073,4.073,178.618,169.261,197.715
0.131,10.569,4.107,4.107,178.389,169.025,197.811
0.132,10.882,4.135,4.135,178.180,168.809,197.899
0.133,11.158,4.155,4.155,177.996,168.619,197.977
0.134,11.390,4.169,4.169,177.840,168.461,198.042
0.135,11.573,4.179,4.179,177.716,168.337,198.093
0.137,11.708,4.186,4.186,177.623,168.246,198.131
0.138,11.803,4.191,4.191,177.555,168.185,198.157
0.139,11.863,4.197,4.197,177.509,168.149,198.173
0.140,11.895,4.206,4.206,177.481,168.136,198.182
0.142,11.911,4.217,4.217,177.467,168.141,198.185
0.143,11.931,4.234,4.234,177.463,168.161,198.183
0.144,11.962,4.254,4.254,177.464,168.191,198.180
0.145,12.000,4.277,4.277,177.467,168.229,198.177
0.147,12.042,4.301,4.301,177.467,168.271,198.176
0.148,12.084,4.326,4.326,177.461,168.313,198.178
0.149,12.127,4.349,4.349,177.444,168.351,198.186
0.150,12.173,4.371,4.371,177.413,168.382,198.201
0.151,12.229,4.389,4.389,177.367,168.405,198.223
0.153,12.296,4.404,4.404,177.309,168.422,198.251
0.154,12.374,4.415,4.415,177.238,168.434,198.283
0.155,12.463,4.423,4.423,177.157,168.441,198.319
0.156,12.562,4.429,4.429,177.066,168.444,198.357
0.158,12.668,4.434,4.434,176.967,168.445,198.395
0.159,12.780,4.439,4.439,176.862,168.444,198.434
0.160,12.897,4.445,4.445,176.751,168.443,198.470
0.161,13.018,4.453,4.453,176.635,168.441,198.504
0.163,13.140,4.463,4.463,176.516,168.441,198.535
0.164,13.263,4.476,4.476,176.396,168.443,198.560
0.165,13.385,4.490,4.490,176.275,168.448,198.578
0.166,13.507,4.506,4.506,176.154,168.456,198.591
0.167,13.629,4.524,4.524,176.033,168.466,198.599
0.169,13.750,4.542,4.542,175.913,168.478,198.604
0.170,13.871,4.561,4.561,175.793,168.489,198.607
0.171,13.991,4.580,4.580,175.673,168.500,198.609
0.172,14.111,4.599,4.599,175.554,168.511,198.612
0.174,14.229,4.618,4.618,175.436,168.519,198.617
0.175,14.347,4.637,4.637,175.318,168.524,198.624
0.176,14.464,4.656,4.656,175.202,168.526,198.636
0.177,14.580,4.677,4.677,175.087,168.523,198.654
0.179,14.696,4.699,4.699,174.974,168.515,198.678
0.180,14.814,4.723,4.723,174.861,168.501,198.710
0.181,14.933,4.749,4.749,174.751,168.481,198.751
0.182,15.053,4.778,4.778,174.644,168.456,198.798
0.183,15.174,4.810,4.810,174.539,168.427,198.851
0.185,15.293,4.844,4.844,174.439,168.394,198.907
0.186,15.411,4.878,4.878,174.344,168.359,198.967
0.187,15.526,4.913,4.913,174.254,168.322,199.028
0.188,15.637,4.948,4.948,174.170,168.284,199.090
0.190,15.742,4.981,4.981,174.093,168.247,199.151
0.191,15.840,5.012,5.012,174.023,168.210,199.209
0.192,15.929,5.040,5.040,173.962,168.175,199.264
0.193,16.009,5.064,5.064,173.909,168.143,199.314
0.195,16.077,5.085,5.085,173.866,168.114,199.358
0.196,16.133,5.103,5.103,173.833,168.089,199.396
0.197,16.180,5.117,5.118,173.808,168.067,199.428
0.198,16.217,5.130,5.130,173.790,168.047,199.456
0.200,16.248,5.140,5.140,173.779,168.031,199.479
0.201,16.274,5.147,5.147,173.772,168.016,199.498
0.202,16.295,5.153,5.153,173.770,168.003,199.516
0.203,16.315,5.157,5.157,173.771,167.991,199.531
0.204,16.333,5.160,5.160,173.773,167.979,199.545
0.206,16.352,5.163,5.162,173.776,167.968,199.559
0.207,16.370,5.165,5.164,173.779,167.957,199.574
0.208,16.390,5.168,5.167,173.781,167.945,199.590
0.209,16.412,5.172,5.170,173.780,167.932,199.607
0.211,16.437,5.177,5.176,173.776,167.918,199.627
0.212,16.465,5.184,5.184,173.769,167.903,199.650
0.213,16.496,5.193,5.194,173.759,167.886,199.675
0.214,16.530,5.205,5.207,173.747,167.869,199.701
0.216,16.566,5.219,5.223,173.733,167.852,199.729
0.217,16.605,5.235,5.240,173.716,167.834,199.760
0.218,16.646,5.253,5.258,173.698,167.815,199.791
0.219,16.688,5.272,5.277,173.678,167.797,199.824
0.220,16.732,5.292,5.296,173.657,167.778,199.858
0.222,16.778,5.314,5.315,173.634,167.760,199.893
0.223,16.824,5.336,5.334,173.611,167.742,199.928
0.224,16.871,5.358,5.351,173.587,167.724,199.965
0.225,16.918,5.380,5.368,173.562,167.708,200.001
0.227,16.967,5.400,5.384,173.535,167.693,200.039
0.228,17.018,5.418,5.400,173.505,167.681,200.078
0.229,17.072,5.434,5.416,173.470,167.673,200.118
0.230,17.131,5.445,5.431,173.428,167.670,200.160
0.232,17.196,5.453,5.445,173.379,167.672,200.204
0.233,17.271,5.455,5.460,173.322,167.680,200.250
0.234,17.355,5.452,5.475,173.254,167.697,200.299
0.235,17.453,5.447,5.490,173.175,167.722,200.350
0.236,17.565,5.440,5.507,173.084,167.756,200.404
0.238,17.693,5.435,5.524,172.978,167.801,200.462
0.239,17.840,5.432,5.544,172.857,167.857,200.523
0.240,18.006,5.435,5.567,172.720,167.925,200.588
0.241,18.187,5.444,5.592,172.571,168.003,200.655
0.243,18.380,5.463,5.621,172.412,168.089,200.724
0.244,18.580,5.491,5.653,172.248,168.181,200.792
0.245,18.784,5.527,5.687,172.082,168.277,200.859
0.246,18.986,5.568,5.723,171.918,168.375,200.924
0.248,19.182,5.611,5.759,171.759,168.472,200.984
0.249,19.369,5.654,5.793,171.608,168.568,201.040
0.250,19.542,5.694,5.824,171.470,168.660,201.088
0.251,19.696,5.729,5.852,171.348,168.745,201.129
0.252,19.829,5.755,5.874,171.245,168.823,201.161
0.254,19.935,5.771,5.891,171.165,168.890,201.183
0.255,20.013,5.777,5.901,171.111,168.945,201.194
0.256,20.067,5.775,5.907,171.079,168.988,201.195
0.257,20.101,5.767,5.908,171.066,169.019,201.189
0.259,20.122,5.754,5.905,171.066,169.037,201.178
0.260,20.140,5.738,5.898,171.076,169.044,201.165
0.261,20.160,5.720,5.890,171.090,169.039,201.152
0.262,20.186,5.702,5.879,171.106,169.022,201.141
0.264,20.217,5.685,5.867,171.118,168.993,201.135
0.265,20.258,5.670,5.854,171.121,168.953,201.136
0.266,20.311,5.655,5.839,171.113,168.901,201.145
0.267,20.383,5.639,5.821,171.088,168.838,201.167
0.268,20.478,5.622,5.801,171.041,168.763,201.202
0.270,20.600,5.603,5.778,170.970,168.677,201.253
0.271,20.750,5.581,5.752,170.876,168.581,201.318
0.272,20.923,5.555,5.722,170.762,168.477,201.395
0.273,21.115,5.524,5.688,170.631,168.366,201.482
0.275,21.322,5.488,5.650,170.487,168.250,201.575
0.276,21.540,5.450,5.609,170.332,168.132,201.673
0.277,21.764,5.409,5.566,170.171,168.012,201.773
0.278,21.991,5.366,5.521,170.006,167.892,201.872
0.280,22.215,5.324,5.476,169.841,167.775,201.969
0.281,22.432,5.283,5.431,169.679,167.661,202.059
0.282,22.639,5.244,5.388,169.524,167.552,202.142
0.283,22.831,5.209,5.346,169.378,167.451,202.214
0.284,23.004,5.178,5.307,169.245,167.358,202.273
0.286,23.158,5.150,5.272,169.125,167.275,202.320
0.287,23.295,5.126,5.242,169.015,167.199,202.357
0.288,23.419,5.104,5.216,168.916,167.133,202.387
0.289,23.529,5.085,5.197,168.825,167.074,202.411
0.291,23.630,5.068,5.184,168.742,167.023,202.432
0.292,23.722,5.053,5.179,168.663,166.979,202.452
0.293,23.808,5.039,5.183,168.589,166.941,202.473
0.294,23.890,5.025,5.195,168.517,166.911,202.498
0.296,23.970,5.013,5.213,168.447,166.887,202.529
0.297,24.053,5.001,5.235,168.376,166.868,202.567
0.298,24.141,4.989,5.258,168.303,166.855,202.616
0.299,24.239,4.977,5.280,168.227,166.847,202.677
0.300,24.346,4.965,5.298,168.148,166.844,202.749
0.302,24.461,4.952,5.310,168.068,166.845,202.832
0.303,24.582,4.939,5.312,167.988,166.849,202.922
0.304,24.705,4.925,5.304,167.910,166.857,203.017
0.305,24.829,4.911,5.287,167.834,166.866,203.115
0.307,24.952,4.896,5.261,167.763,166.878,203.213
0.308,25.069,4.880,5.231,167.698,166.891,203.311
0.309,25.180,4.864,5.197,167.640,166.904,203.404
0.310,25.281,4.847,5.163,167.591,166.918,203.491
0.312,25.370,4.831,5.129,167.552,166.931,203.570
0.313,25.444,4.814,5.100,167.525,166.943,203.638
0.314,25.503,4.797,5.075,167.512,166.954,203.694
0.315,25.546,4.780,5.055,167.510,166.963,203.737
0.317,25.580,4.764,5.040,167.518,166.970,203.769
0.318,25.608,4.748,5.028,167.532,166.977,203.792
0.319,25.631,4.733,5.018,167.549,166.983,203.808
0.320,25.652,4.719,5.009,167.565,166.988,203.819
0.321,25.668,4.706,5.000,167.577,166.994,203.828
0.323,25.679,4.696,4.990,167.582,167.000,203.835
0.324,25.691,4.687,4.978,167.578,167.007,203.843
0.325,25.714,4.679,4.963,167.559,167.015,203.855
0.326,25.753,4.672,4.944,167.524,167.024,203.872
0.328,25.814,4.666,4.923,167.470,167.035,203.896
0.329,25.900,4.658,4.898,167.392,167.048,203.929
0.330,26.010,4.648,4.869,167.291,167.064,203.972
0.331,26.142,4.636,4.837,167.171,167.081,204.023
0.333,26.289,4.620,4.801,167.037,167.100,204.080
0.334,26.447,4.600,4.760,166.893,167.120,204.142
0.335,26.612,4.575,4.716,166.743,167.140,204.207
0.336,26.778,4.548,4.670,166.592,167.161,204.274
0.337,26.941,4.518,4.622,166.445,167.181,204.340
0.339,27.095,4.489,4.575,166.306,167.200,204.404
0.340,27.237,4.460,4.531,166.179,167.218,204.464
0.341,27.361,4.433,4.490,166.069,167.235,204.519
0.342,27.463,4.411,4.455,165.980,167.249,204.568
0.344,27.538,4.393,4.426,165.918,167.261,204.607
0.345,27.585,4.381,4.404,165.882,167.271,204.637
0.346,27.611,4.374,4.390,165.869,167.278,204.658
0.347,27.626,4.370,4.380,165.872,167.283,204.672
0.349,27.642,4.369,4.374,165.886,167.286,204.679
0.350,27.661,4.369,4.371,165.906,167.287,204.682
0.351,27.680,4.369,4.369,165.924,167.287,204.680
0.352,27.694,4.367,4.367,165.937,167.285,204.675
0.353,27.701,4.363,4.363,165.937,167.283,204.667
0.355,27.720,4.355,4.357,165.920,167.279,204.660
0.356,27.761,4.345,4.349,165.880,167.276,204.652
0.357,27.831,4.334,4.341,165.811,167.272,204.646
0.358,27.935,4.323,4.335,165.707,167.268,204.642
0.360,28.076,4.315,4.331,165.566,167.264,204.642
0.361,28.250,4.310,4.330,165.392,167.261,204.644
0.362,28.450,4.310,4.336,165.192,167.257,204.649
0.363,28.670,4.317,4.348,164.973,167.254,204.656
0.365,28.903,4.332,4.367,164.739,167.250,204.665
0.366,29.144,4.354,4.394,164.499,167.247,204.675
0.367,29.385,4.382,4.427,164.258,167.243,204.685
0.368,29.622,4.412,4.462,164.021,167.238,204.697
0.369,29.847,4.443,4.499,163.797,167.234,204.708
0.371,30.054,4.473,4.535,163.590,167.228,204.718
0.372,30.237,4.500,4.569,163.407,167.223,204.728
0.373,30.389,4.521,4.598,163.255,167.216,204.736
0.374,30.507,4.535,4.621,163.138,167.209,204.743
0.376,30.594,4.542,4.637,163.052,167.201,204.749
0.377,30.655,4.542,4.647,162.992,167.192,204.754
0.378,30.695,4.538,4.652,162.953,167.183,204.759
0.379,30.721,4.531,4.653,162.930,167.172,204.764
0.381,30.739,4.523,4.649,162.918,167.161,204.771
0.382,30.755,4.515,4.643,162.912,167.148,204.779
0.383,30.773,4.508,4.635,162.906,167.135,204.789
0.384,30.795,4.505,4.625,162.895,167.120,204.802
0.385,30.825,4.506,4.614,162.875,167.105,204.819
0.387,30.869,4.512,4.604,162.839,167.088,204.839
0.388,30.932,4.521,4.596,162.784,167.070,204.863
0.389,31.020,4.534,4.591,162.704,167.051,204.893
0.390,31.129,4.551,4.590,162.602,167.031,204.927
0.392,31.259,4.571,4.594,162.479,167.009,204.964
0.393,31.406,4.595,4.605,162.340,166.987,205.004
0.394,31.566,4.621,4.623,162.187,166.963,205.045
0.395,31.737,4.651,4.650,162.023,166.938,205.088
0.397,31.915,4.683,4.683,161.852,166.912,205.130
0.398,32.097,4.717,4.722,161.677,166.885,205.172
0.399,32.281,4.753,4.764,161.500,166.857,205.212
0.400,32.462,4.789,4.809,161.326,166.827,205.250
0.401,32.638,4.826,4.855,161.156,166.797,205.285
0.403,32.806,4.864,4.900,160.994,166.765,205.315
0.404,32.962,4.901,4.943,160.843,166.733,205.340
0.405,33.107,4.937,4.983,160.704,166.700,205.361
0.406,33.241,4.971,5.019,160.575,166.666,205.377
0.408,33.365,5.005,5.052,160.457,166.632,205.390
0.409,33.479,5.036,5.082,160.348,166.598,205.400
0.410,33.584,5.064,5.109,160.249,166.565,205.408
0.411,33.680,5.090,5.135,160.158,166.532,205.413
0.413,33.769,5.112,5.158,160.076,166.501,205.418
0.414,33.849,5.131,5.181,160.001,166.471,205.421
0.415,33.923,5.145,5.202,159.933,166.443,205.425
0.416,33.990,5.156,5.222,159.872,166.417,205.429
0.417,34.050,5.164,5.240,159.816,166.393,205.434
0.419,34.105,5.170,5.257,159.766,166.373,205.441
0.420,34.154,5.174,5.273,159.721,166.354,205.449
0.421,34.199,5.179,5.287,159.681,166.338,205.459
0.422,34.240,5.184,5.298,159.644,166.322,205.470
0.424,34.277,5.190,5.307,159.612,166.308,205.483
0.425,34.312,5.199,5.314,159.582,166.294,205.495
0.426,34.345,5.210,5.319,159.556,166.279,205.508
0.427,34.377,5.222,5.322,159.532,166.263,205.522
0.429,34.408,5.235,5.324,159.511,166.246,205.535
0.430,34.438,5.248,5.325,159.491,166.227,205.548
0.431,34.470,5.260,5.326,159.472,166.205,205.561
0.432,34.503,5.271,5.327,159.454,166.180,205.573
0.433,34.538,5.279,5.329,159.437,166.151,205.584
0.435,34.577,5.283,5.332,159.420,166.118,205.594
0.436,34.620,5.285,5.337,159.400,166.081,205.605
0.437,34.667,5.284,5.342,159.378,166.041,205.619
0.438,34.721,5.282,5.349,159.350,165.999,205.635
0.440,34.781,5.280,5.357,159.316,165.953,205.656
0.441,34.849,5.278,5.365,159.275,165.906,205.683
0.442,34.928,5.279,5.374,159.225,165.856,205.717
0.443,35.017,5.284,5.382,159.164,165.806,205.759
0.445,35.121,5.292,5.391,159.091,165.753,205.810
0.446,35.239,5.306,5.399,159.005,165.700,205.872
0.447,35.375,5.324,5.407,158.904,165.647,205.946
0.448,35.531,5.346,5.416,158.787,165.593,206.033
0.450,35.705,5.373,5.428,158.655,165.539,206.133
0.451,35.895,5.403,5.442,158.510,165.485,206.243
0.452,36.096,5.435,5.459,158.356,165.432,206.360
0.453,36.303,5.471,5.481,158.197,165.378,206.482
0.454,36.513,5.508,5.508,158.035,165.325,206.606
0.456,36.722,5.546,5.541,157.875,165.273,206.729
0.457,36.925,5.585,5.578,157.720,165.220,206.848
0.458,37.118,5.625,5.618,157.572,165.168,206.961
0.459,37.296,5.665,5.660,157.436,165.117,207.065
0.461,37.457,5.704,5.701,157.315,165.066,207.158
0.462,37.595,5.741,5.742,157.212,165.016,207.236
0.463,37.708,5.777,5.779,157.131,164.967,207.297
0.464,37.796,5.811,5.812,157.072,164.918,207.340
0.466,37.866,5.841,5.838,157.031,164.869,207.366
0.467,37.924,5.869,5.860,157.004,164.818,207.377
0.468,37.979,5.893,5.876,156.986,164.766,207.376
0.469,38.038,5.913,5.890,156.972,164.710,207.363
0.470,38.102,5.929,5.902,156.959,164.652,207.341
0.472,38.174,5.940,5.913,156.941,164.588,207.311
0.473,38.256,5.946,5.925,156.914,164.519,207.276
0.474,38.350,5.948,5.938,156.873,164.445,207.237
0.475,38.459,5.943,5.955,156.815,164.363,207.195
0.477,38.586,5.935,5.975,156.734,164.273,207.154
0.478,38.738,5.925,5.998,156.626,164.175,207.114
0.479,38.916,5.915,6.025,156.489,164.067,207.077
0.480,39.117,5.908,6.055,156.326,163.953,207.043
0.482,39.338,5.907,6.087,156.143,163.833,207.010
0.483,39.575,5.915,6.122,155.944,163.710,206.980
0.484,39.821,5.932,6.159,155.734,163.584,206.950
0.485,40.074,5.963,6.198,155.516,163.459,206.921
0.486,40.328,6.007,6.239,155.297,163.335,206.892
0.488,40.578,6.062,6.281,155.080,163.215,206.863
0.489,40.820,6.125,6.324,154.869,163.099,206.832
0.490,41.048,6.193,6.366,154.671,162.991,206.801
0.491,41.258,6.263,6.408,154.488,162.892,206.768
0.493,41.446,6.332,6.449,154.327,162.803,206.732
0.494,41.608,6.397,6.489,154.189,162.727,206.695
0.495,41.746,6.455,6.525,154.074,162.660,206.655
0.496,41.864,6.504,6.559,153.980,162.603,206.615
0.498,41.964,6.544,6.590,153.903,162.553,206.575
0.499,42.049,6.576,6.619,153.841,162.509,206.536
0.500,42.122,6.600,6.644,153.792,162.470,206.499
0.501,42.185,6.617,6.666,153.754,162.433,206.466
0.502,42.240,6.628,6.685,153.723,162.398,206.436
