"T","Distance","Radius","FreeRadius","X","Y","Z"
0.000,0.000,1.728,1.728,268.563,244.061,239.562
0.001,0.107,1.771,1.771,268.608,244.037,239.657
0.003,0.213,1.812,1.813,268.652,244.014,239.750
0.004,0.318,1.852,1.852,268.697,243.992,239.843
0.005,0.422,1.888,1.889,268.743,243.972,239.934
0.006,0.525,1.921,1.921,268.789,243.954,240.024
0.008,0.625,1.947,1.948,268.836,243.939,240.111
0.009,0.723,1.968,1.968,268.884,243.927,240.195
0.010,0.818,1.980,1.980,268.934,243.919,240.276
0.012,0.911,1.985,1.985,268.986,243.915,240.353
0.013,1.001,1.984,1.983,269.039,243.917,240.426
0.014,1.089,1.977,1.976,269.094,243.923,240.494
0.015,1.174,1.967,1.965,269.150,243.936,240.557
0.017,1.255,1.956,1.954,269.205,243.951,240.614
0.018,1.328,1.944,1.943,269.255,243.966,240.665
0.019,1.388,1.934,1.934,269.296,243.976,240.708
0.021,1.432,1.928,1.928,269.322,243.978,240.744
0.022,1.463,1.926,1.928,269.331,243.968,240.771
0.023,1.497,1.930,1.934,269.319,243.942,240.790
0.024,1.557,1.940,1.946,269.280,243.897,240.798
0.026,1.654,1.957,1.963,269.212,243.829,240.797
0.027,1.794,1.982,1.988,269.110,243.734,240.784
0.028,1.984,2.015,2.020,268.969,243.608,240.760
0.030,2.228,2.057,2.060,268.788,243.449,240.724
0.031,2.521,2.109,2.107,268.569,243.259,240.677
0.032,2.853,2.171,2.163,268.321,243.046,240.621
0.033,3.214,2.240,2.225,268.051,242.815,240.560
0.035,3.593,2.314,2.293,267.766,242.573,240.494
0.036,3.979,2.391,2.367,267.476,242.327,240.428
0.037,4.363,2.468,2.444,267.187,242.084,240.361
0.039,4.734,2.544,2.525,266.907,241.848,240.298
0.040,5.082,2.616,2.608,266.644,241.628,240.240
0.041,5.396,2.682,2.693,266.406,241.430,240.190
0.042,5.665,2.742,2.778,266.200,241.260,240.150
0.044,5.882,2.795,2.860,266.034,241.124,240.121
0.045,6.044,2.842,2.937,265.908,241.023,240.105
0.046,6.160,2.883,3.008,265.817,240.952,240.099
0.047,6.235,2.919,3.069,265.756,240.908,240.102
0.049,6.279,2.950,3.118,265.720,240.885,240.113
0.050,6.303,2.976,3.154,265.703,240.881,240.130
0.051,6.326,2.999,3.174,265.702,240.889,240.151
0.053,6.357,3.017,3.179,265.709,240.908,240.175
0.054,6.394,3.033,3.174,265.721,240.931,240.200
0.055,6.431,3.049,3.162,265.733,240.955,240.226
0.056,6.463,3.063,3.147,265.739,240.977,240.249
0.058,6.488,3.079,3.133,265.734,240.990,240.269
0.059,6.512,3.097,3.123,265.717,240.995,240.286
0.060,6.543,3.118,3.122,265.690,240.991,240.299
0.062,6.582,3.144,3.133,265.654,240.981,240.310
0.063,6.629,3.172,3.154,265.612,240.963,240.320
0.064,6.682,3.203,3.183,265.565,240.940,240.328
0.065,6.739,3.234,3.217,265.515,240.913,240.336
0.067,6.798,3.264,3.253,265.465,240.882,240.344
0.068,6.858,3.293,3.288,265.416,240.849,240.353
0.069,6.917,3.317,3.319,265.370,240.813,240.363
0.071,6.973,3.337,3.343,265.330,240.777,240.376
0.072,7.024,3.351,3.357,265.297,240.741,240.391
0.073,7.072,3.360,3.363,265.272,240.705,240.409
0.074,7.118,3.365,3.365,265.252,240.668,240.429
0.076,7.164,3.367,3.363,265.236,240.629,240.448
0.077,7.212,3.368,3.361,265.222,240.587,240.465
0.078,7.262,3.369,3.361,265.207,240.541,240.479
0.080,7.317,3.372,3.366,265.190,240.489,240.488
0.081,7.379,3.378,3.378,265.168,240.431,240.491
0.082,7.450,3.387,3.399,265.140,240.366,240.485
0.083,7.534,3.400,3.428,265.103,240.292,240.471
0.085,7.634,3.416,3.462,265.056,240.208,240.445
0.086,7.753,3.435,3.499,264.996,240.113,240.407
0.087,7.891,3.455,3.537,264.923,240.007,240.356
0.089,8.046,3.478,3.575,264.838,239.892,240.294
0.090,8.213,3.501,3.609,264.746,239.772,240.224
0.091,8.388,3.526,3.638,264.648,239.648,240.148
0.092,8.567,3.550,3.661,264.548,239.524,240.068
0.094,8.744,3.575,3.677,264.448,239.402,239.987
0.095,8.917,3.597,3.688,264.350,239.284,239.908
0.096,9.079,3.618,3.694,264.258,239.174,239.832
0.098,9.227,3.636,3.695,264.175,239.074,239.762
0.099,9.356,3.651,3.694,264.102,238.986,239.701
0.100,9.463,3.661,3.689,264.044,238.913,239.650
0.101,9.543,3.667,3.682,264.001,238.857,239.612
0.103,9.599,3.668,3.673,263.972,238.817,239.585
0.104,9.635,3.664,3.664,263.955,238.791,239.568
0.105,9.653,3.658,3.654,263.948,238.776,239.560
0.107,9.658,3.651,3.645,263.950,238.771,239.559
0.108,9.668,3.643,3.638,263.959,238.774,239.564
0.109,9.687,3.636,3.632,263.972,238.783,239.573
0.110,9.710,3.631,3.629,263.987,238.796,239.584
0.112,9.736,3.629,3.630,264.004,238.812,239.597
0.113,9.762,3.631,3.634,264.019,238.828,239.611
0.114,9.785,3.635,3.641,264.030,238.843,239.622
0.116,9.801,3.641,3.649,264.038,238.855,239.632
0.117,9.813,3.648,3.659,264.041,238.864,239.638
0.118,9.820,3.656,3.668,264.040,238.870,239.642
0.119,9.825,3.663,3.676,264.037,238.873,239.644
0.121,9.829,3.668,3.682,264.033,238.874,239.644
0.122,9.835,3.671,3.686,264.027,238.873,239.642
0.123,9.842,3.672,3.687,264.022,238.870,239.638
0.125,9.850,3.670,3.685,264.018,238.865,239.634
0.126,9.859,3.667,3.682,264.015,238.859,239.628
0.127,9.869,3.663,3.677,264.016,238.852,239.621
0.128,9.880,3.657,3.672,264.020,238.844,239.614
0.130,9.895,3.651,3.666,264.028,238.835,239.606
0.131,9.913,3.645,3.660,264.040,238.824,239.597
0.132,9.935,3.638,3.656,264.055,238.812,239.586
0.134,9.962,3.631,3.651,264.071,238.796,239.572
0.135,9.993,3.623,3.645,264.087,238.776,239.554
0.136,10.030,3.612,3.637,264.101,238.751,239.532
0.137,10.073,3.598,3.626,264.114,238.720,239.504
0.139,10.125,3.581,3.610,264.122,238.682,239.469
0.140,10.187,3.558,3.588,264.127,238.636,239.427
0.141,10.262,3.531,3.560,264.125,238.581,239.377
0.142,10.349,3.496,3.524,264.116,238.517,239.318
0.144,10.453,3.457,3.482,264.099,238.443,239.248
0.145,10.572,3.414,3.435,264.074,238.357,239.168
0.146,10.709,3.370,3.386,264.042,238.262,239.077
0.148,10.861,3.325,3.337,264.004,238.156,238.974
0.149,11.030,3.282,3.290,263.962,238.040,238.858
0.150,11.215,3.243,3.246,263.916,237.914,238.730
0.151,11.417,3.208,3.208,263.868,237.778,238.589
0.153,11.635,3.180,3.178,263.819,237.634,238.433
0.154,11.869,3.161,3.158,263.769,237.480,238.264
0.155,12.120,3.154,3.150,263.720,237.317,238.079
0.157,12.388,3.160,3.157,263.673,237.145,237.880
0.158,12.672,3.182,3.180,263.628,236.965,237.664
0.159,12.971,3.223,3.221,263.587,236.777,237.435
0.160,13.281,3.284,3.284,263.549,236.583,237.197
0.162,13.597,3.369,3.369,263.513,236.384,236.954
0.163,13.916,3.477,3.477,263.479,236.183,236.710
0.164,14.232,3.602,3.603,263.447,235.979,236.469
0.166,14.543,3.739,3.740,263.416,235.776,236.237
0.167,14.843,3.879,3.880,263.387,235.573,236.017
0.168,15.130,4.017,4.017,263.357,235.374,235.813
0.169,15.399,4.145,4.145,263.328,235.178,235.630
0.171,15.647,4.257,4.257,263.299,234.989,235.472
0.172,15.872,4.346,4.346,263.270,234.806,235.344
0.173,16.075,4.408,4.408,263.239,234.632,235.246
0.175,16.259,4.447,4.447,263.209,234.465,235.174
0.176,16.429,4.468,4.468,263.180,234.305,235.126
0.177,16.587,4.475,4.474,263.152,234.152,235.098
0.178,16.736,4.471,4.471,263.126,234.006,235.086
0.180,16.878,4.463,4.463,263.102,233.866,235.088
0.181,17.013,4.453,4.453,263.081,233.732,235.100
0.182,17.144,4.446,4.446,263.064,233.604,235.119
0.184,17.269,4.445,4.445,263.050,233.481,235.140
0.185,17.389,4.449,4.449,263.042,233.364,235.162
0.186,17.503,4.459,4.459,263.039,233.251,235.180
0.187,17.612,4.473,4.473,263.041,233.143,235.193
0.189,17.716,4.491,4.491,263.047,233.039,235.200
0.190,17.816,4.514,4.514,263.057,232.940,235.202
0.191,17.911,4.539,4.539,263.069,232.845,235.200
0.193,18.003,4.568,4.568,263.082,232.755,235.194
0.194,18.092,4.599,4.599,263.096,232.668,235.184
0.195,18.176,4.631,4.631,263.110,232.586,235.170
0.196,18.257,4.664,4.664,263.121,232.507,235.153
0.198,18.335,4.696,4.696,263.131,232.433,235.134
0.199,18.409,4.727,4.727,263.136,232.362,235.112
0.200,18.480,4.755,4.755,263.138,232.295,235.089
0.202,18.549,4.779,4.779,263.134,232.231,235.064
0.203,18.615,4.800,4.800,263.125,232.171,235.037
0.204,18.680,4.816,4.816,263.112,232.114,235.010
0.205,18.743,4.829,4.829,263.096,232.060,234.981
0.207,18.805,4.840,4.841,263.076,232.009,234.952
0.208,18.866,4.851,4.852,263.053,231.961,234.922
0.209,18.927,4.863,4.863,263.028,231.915,234.892
0.211,18.986,4.876,4.876,263.001,231.871,234.862
0.212,19.045,4.893,4.893,262.972,231.830,234.831
0.213,19.102,4.913,4.913,262.943,231.790,234.802
0.214,19.159,4.937,4.937,262.912,231.753,234.772
0.216,19.214,4.964,4.963,262.882,231.717,234.744
0.217,19.268,4.992,4.991,262.852,231.682,234.716
0.218,19.320,5.019,5.018,262.823,231.648,234.688
0.220,19.371,5.046,5.045,262.795,231.615,234.662
0.221,19.420,5.071,5.070,262.769,231.583,234.636
0.222,19.468,5.092,5.092,262.745,231.550,234.610
0.223,19.514,5.109,5.109,262.723,231.518,234.585
0.225,19.559,5.122,5.123,262.704,231.485,234.560
0.226,19.603,5.131,5.134,262.689,231.452,234.536
0.227,19.647,5.138,5.142,262.677,231.418,234.512
0.228,19.690,5.144,5.148,262.669,231.382,234.489
0.230,19.734,5.149,5.153,262.666,231.345,234.466
0.231,19.778,5.155,5.157,262.666,231.308,234.442
0.232,19.823,5.161,5.161,262.668,231.270,234.418
0.234,19.868,5.169,5.165,262.671,231.232,234.393
0.235,19.913,5.178,5.171,262.673,231.196,234.367
0.236,19.958,5.189,5.178,262.672,231.161,234.338
0.237,20.004,5.200,5.187,262.667,231.128,234.307
0.239,20.050,5.213,5.199,262.658,231.098,234.273
0.240,20.098,5.226,5.214,262.642,231.072,234.236
0.241,20.151,5.239,5.232,262.617,231.050,234.194
0.243,20.211,5.252,5.254,262.584,231.032,234.148
0.244,20.279,5.265,5.280,262.540,231.020,234.098
0.245,20.356,5.279,5.309,262.486,231.013,234.043
0.246,20.439,5.292,5.338,262.426,231.011,233.986
0.248,20.526,5.305,5.368,262.361,231.013,233.927
0.249,20.616,5.318,5.395,262.294,231.020,233.868
0.250,20.705,5.332,5.419,262.228,231.031,233.810
0.252,20.792,5.346,5.437,262.163,231.045,233.754
0.253,20.873,5.360,5.450,262.104,231.062,233.701
0.254,20.947,5.374,5.455,262.051,231.083,233.652
0.255,21.012,5.388,5.455,262.008,231.106,233.609
0.257,21.066,5.401,5.451,261.977,231.131,233.574
0.258,21.109,5.413,5.445,261.960,231.158,233.546
0.259,21.144,5.423,5.440,261.956,231.186,233.524
0.261,21.175,5.431,5.436,261.963,231.210,233.505
0.262,21.207,5.436,5.436,261.978,231.229,233.486
0.263,21.240,5.438,5.440,262.000,231.240,233.464
0.264,21.279,5.436,5.450,262.025,231.240,233.434
0.266,21.329,5.427,5.459,262.053,231.226,233.394
0.267,21.396,5.411,5.466,262.079,231.196,233.341
0.268,21.485,5.386,5.464,262.102,231.147,233.271
0.270,21.601,5.349,5.451,262.120,231.076,233.181
0.271,21.750,5.299,5.423,262.131,230.980,233.067
0.272,21.936,5.234,5.374,262.131,230.857,232.927
0.273,22.158,5.152,5.302,262.121,230.708,232.762
0.275,22.409,5.056,5.208,262.102,230.539,232.578
0.276,22.681,4.950,5.097,262.077,230.356,232.379
0.277,22.967,4.838,4.975,262.046,230.162,232.171
0.279,23.258,4.725,4.849,262.012,229.964,231.960
0.280,23.548,4.616,4.724,261.975,229.767,231.751
0.281,23.828,4.515,4.606,261.938,229.576,231.549
0.282,24.091,4.427,4.501,261.902,229.397,231.360
0.284,24.329,4.356,4.415,261.869,229.234,231.190
0.285,24.534,4.302,4.348,261.840,229.094,231.043
0.286,24.699,4.264,4.298,261.818,228.981,230.925
0.288,24.821,4.239,4.263,261.801,228.897,230.837
0.289,24.907,4.226,4.241,261.791,228.838,230.777
0.290,24.959,4.220,4.229,261.786,228.801,230.739
0.291,24.985,4.221,4.225,261.784,228.783,230.721
0.293,24.989,4.227,4.227,261.786,228.780,230.719
0.294,25.003,4.235,4.233,261.791,228.789,230.729
0.295,25.029,4.243,4.242,261.797,228.806,230.747
0.297,25.061,4.252,4.252,261.804,228.827,230.770
0.298,25.094,4.262,4.263,261.812,228.850,230.793
0.299,25.125,4.270,4.272,261.818,228.871,230.814
0.300,25.146,4.277,4.280,261.823,228.886,230.829
0.302,25.156,4.282,4.286,261.826,228.893,230.835
0.303,25.158,4.284,4.287,261.827,228.894,230.833
0.304,25.167,4.283,4.284,261.827,228.888,230.825
0.306,25.184,4.280,4.278,261.826,228.878,230.812
0.307,25.206,4.274,4.270,261.824,228.864,230.795
0.308,25.233,4.268,4.261,261.821,228.848,230.775
0.309,25.261,4.262,4.253,261.818,228.829,230.753
0.311,25.291,4.256,4.247,261.815,228.810,230.730
0.312,25.320,4.251,4.245,261.813,228.791,230.709
0.313,25.347,4.248,4.249,261.811,228.773,230.689
0.315,25.370,4.248,4.258,261.810,228.758,230.671
0.316,25.389,4.248,4.272,261.811,228.745,230.658
0.317,25.406,4.246,4.288,261.814,228.732,230.646
0.318,25.425,4.241,4.304,261.821,228.719,230.635
0.320,25.449,4.231,4.318,261.833,228.703,230.623
0.321,25.480,4.213,4.327,261.852,228.681,230.608
0.322,25.523,4.186,4.329,261.877,228.653,230.589
0.323,25.578,4.148,4.322,261.910,228.616,230.564
0.325,25.650,4.097,4.305,261.953,228.568,230.533
0.326,25.741,4.038,4.279,262.007,228.508,230.492
0.327,25.853,3.972,4.245,262.073,228.432,230.441
0.329,25.989,3.903,4.205,262.151,228.340,230.378
0.330,26.151,3.835,4.159,262.243,228.231,230.302
0.331,26.336,3.770,4.109,262.347,228.107,230.212
0.332,26.542,3.711,4.057,262.460,227.971,230.107
0.334,26.766,3.662,4.003,262.582,227.826,229.986
0.335,27.005,3.623,3.948,262.710,227.677,229.850
0.336,27.258,3.593,3.895,262.841,227.527,229.696
0.338,27.521,3.570,3.843,262.975,227.378,229.525
0.339,27.793,3.552,3.793,263.109,227.234,229.336
0.340,28.074,3.536,3.747,263.241,227.100,229.127
0.341,28.363,3.520,3.706,263.368,226.977,228.900
0.343,28.660,3.503,3.670,263.490,226.869,228.651
0.344,28.965,3.482,3.640,263.604,226.780,228.383
0.345,29.277,3.456,3.617,263.711,226.708,228.099
0.347,29.592,3.429,3.599,263.809,226.651,227.804
0.348,29.907,3.402,3.585,263.899,226.609,227.506
0.349,30.216,3.378,3.575,263.981,226.578,227.209
0.350,30.516,3.358,3.566,264.054,226.558,226.919
0.352,30.800,3.345,3.559,264.120,226.546,226.643
0.353,31.064,3.340,3.552,264.178,226.542,226.385
0.354,31.303,3.346,3.544,264.228,226.542,226.152
0.356,31.510,3.363,3.535,264.270,226.546,225.949
0.357,31.680,3.387,3.526,264.304,226.551,225.783
0.358,31.808,3.415,3.518,264.330,226.556,225.658
0.359,31.897,3.445,3.513,264.349,226.560,225.571
0.361,31.951,3.475,3.511,264.362,226.563,225.518
0.362,31.977,3.501,3.513,264.368,226.565,225.493
0.363,31.980,3.520,3.521,264.370,226.566,225.491
0.365,31.995,3.531,3.535,264.367,226.565,225.506
0.366,32.022,3.533,3.553,264.361,226.562,225.533
0.367,32.057,3.528,3.575,264.353,226.557,225.566
0.368,32.093,3.517,3.597,264.342,226.549,225.600
0.370,32.126,3.504,3.618,264.331,226.540,225.629
0.371,32.152,3.488,3.635,264.319,226.527,225.649
0.372,32.172,3.473,3.646,264.308,226.512,225.653
0.374,32.196,3.459,3.649,264.298,226.494,225.642
0.375,32.229,3.449,3.642,264.288,226.473,225.617
0.376,32.272,3.442,3.626,264.278,226.451,225.581
0.377,32.324,3.437,3.603,264.269,226.428,225.536
0.379,32.383,3.433,3.575,264.260,226.403,225.484
0.380,32.446,3.431,3.544,264.251,226.378,225.427
0.381,32.511,3.429,3.512,264.241,226.352,225.368
0.383,32.576,3.427,3.481,264.231,226.327,225.308
0.384,32.640,3.424,3.454,264.220,226.303,225.250
0.385,32.700,3.419,3.431,264.209,226.280,225.196
0.386,32.753,3.412,3.413,264.197,226.259,225.149
0.388,32.800,3.405,3.400,264.184,226.239,225.109
0.389,32.839,3.398,3.390,264.171,226.222,225.076
0.390,32.871,3.391,3.383,264.159,226.207,225.050
0.392,32.896,3.385,3.379,264.148,226.195,225.032
0.393,32.913,3.380,3.378,264.139,226.185,225.020
0.394,32.922,3.378,3.378,264.133,226.180,225.016
0.395,32.926,3.378,3.380,264.131,226.178,225.018
0.397,32.936,3.380,3.383,264.132,226.180,225.028
0.398,32.954,3.383,3.387,264.139,226.186,225.044
0.399,32.982,3.387,3.391,264.150,226.196,225.067
0.401,33.020,3.392,3.395,264.168,226.212,225.097
0.402,33.066,3.396,3.398,264.191,226.231,225.131
0.403,33.113,3.400,3.401,264.216,226.251,225.166
0.404,33.156,3.403,3.403,264.240,226.270,225.196
0.406,33.189,3.404,3.403,264.259,226.286,225.218
0.407,33.206,3.403,3.402,264.271,226.295,225.226
0.408,33.216,3.400,3.398,264.272,226.295,225.217
0.409,33.252,3.393,3.391,264.259,226.283,225.185
0.411,33.323,3.383,3.381,264.229,226.257,225.126
0.412,33.435,3.369,3.368,264.178,226.214,225.035
0.413,33.595,3.351,3.350,264.104,226.152,224.909
0.415,33.807,3.328,3.329,264.003,226.067,224.742
0.416,34.074,3.302,3.304,263.875,225.961,224.534
0.417,34.385,3.275,3.279,263.723,225.836,224.293
0.418,34.731,3.253,3.257,263.553,225.697,224.025
0.420,35.102,3.237,3.242,263.370,225.548,223.739
0.421,35.487,3.233,3.238,263.178,225.393,223.443
0.422,35.877,3.243,3.247,262.982,225.238,223.144
0.424,36.260,3.272,3.274,262.788,225.085,222.851
0.425,36.628,3.323,3.321,262.599,224.940,222.572
0.426,36.969,3.394,3.387,262.421,224.806,222.313
0.427,37.274,3.480,3.468,262.258,224.688,222.083
0.429,37.533,3.574,3.558,262.115,224.590,221.891
0.430,37.740,3.670,3.652,261.996,224.515,221.739
0.431,37.899,3.762,3.744,261.899,224.460,221.627
0.433,38.016,3.843,3.830,261.821,224.421,221.548
0.434,38.100,3.908,3.904,261.760,224.394,221.497
0.435,38.155,3.951,3.962,261.714,224.376,221.471
0.436,38.192,3.971,4.002,261.680,224.363,221.465
0.438,38.219,3.972,4.027,261.657,224.352,221.474
0.439,38.247,3.958,4.040,261.641,224.339,221.493
0.440,38.280,3.934,4.044,261.631,224.321,221.518
0.442,38.318,3.902,4.040,261.624,224.293,221.543
0.443,38.365,3.867,4.031,261.618,224.252,221.565
0.444,38.423,3.833,4.020,261.611,224.196,221.579
0.445,38.493,3.802,4.009,261.602,224.127,221.586
0.447,38.572,3.778,4.000,261.592,224.049,221.585
0.448,38.657,3.757,3.990,261.580,223.964,221.577
0.449,38.747,3.742,3.982,261.567,223.877,221.563
0.451,38.837,3.731,3.974,261.553,223.791,221.542
0.452,38.924,3.725,3.966,261.537,223.709,221.516
0.453,39.007,3.723,3.959,261.519,223.634,221.484
0.454,39.083,3.724,3.953,261.500,223.570,221.448
0.456,39.150,3.729,3.946,261.480,223.521,221.408
0.457,39.208,3.737,3.940,261.459,223.490,221.364
0.458,39.262,3.747,3.933,261.435,223.479,221.316
0.460,39.319,3.757,3.925,261.411,223.485,221.265
0.461,39.381,3.766,3.917,261.387,223.503,221.211
0.462,39.448,3.775,3.906,261.362,223.529,221.153
0.463,39.519,3.780,3.894,261.338,223.556,221.094
0.465,39.590,3.782,3.880,261.315,223.581,221.031
0.466,39.660,3.779,3.863,261.294,223.597,220.966
0.467,39.730,3.773,3.844,261.274,223.599,220.898
0.469,39.804,3.763,3.824,261.257,223.584,220.828
0.470,39.887,3.751,3.804,261.243,223.545,220.757
0.471,39.987,3.738,3.784,261.233,223.478,220.683
0.472,40.113,3.724,3.766,261.226,223.378,220.607
0.474,40.265,3.710,3.749,261.223,223.247,220.530
0.475,40.438,3.697,3.736,261.224,223.092,220.452
0.476,40.628,3.685,3.725,261.226,222.919,220.374
0.478,40.829,3.675,3.718,261.231,222.734,220.297
0.479,41.035,3.667,3.713,261.237,222.542,220.220
0.480,41.242,3.661,3.711,261.244,222.349,220.145
0.481,41.443,3.657,3.711,261.251,222.163,220.072
0.483,41.632,3.655,3.714,261.258,221.987,220.002
0.484,41.804,3.657,3.717,261.264,221.829,219.935
0.485,41.952,3.661,3.722,261.268,221.694,219.873
0.487,42.073,3.667,3.729,261.270,221.589,219.814
0.488,42.167,3.675,3.736,261.271,221.512,219.761
0.489,42.238,3.684,3.743,261.269,221.459,219.712
0.490,42.292,3.693,3.751,261.267,221.427,219.669
0.492,42.333,3.701,3.759,261.263,221.411,219.631
0.493,42.366,3.707,3.768,261.260,221.408,219.598
0.494,42.394,3.710,3.775,261.256,221.411,219.571
0.496,42.417,3.710,3.782,261.253,221.418,219.550
0.497,42.433,3.705,3.789,261.251,221.424,219.535
0.498,42.443,3.699,3.795,261.250,221.426,219.525
0.499,42.452,3.691,3.802,261.251,221.417,219.522
0.501,42.474,3.684,3.809,261.254,221.395,219.525
0.502,42.512,3.677,3.816,261.259,221.359,219.533
0.503,42.565,3.674,3.825,261.268,221.308,219.544
0.504,42.630,3.674,3.836,261.279,221.245,219.556
0.506,42.707,3.679,3.848,261.295,221.170,219.565
0.507,42.794,3.689,3.862,261.314,221.085,219.570
0.508,42.891,3.705,3.877,261.339,220.991,219.568
0.510,42.998,3.725,3.893,261.368,220.889,219.557
0.511,43.114,3.748,3.909,261.402,220.781,219.534
0.512,43.240,3.775,3.925,261.442,220.667,219.497
0.513,43.377,3.805,3.941,261.489,220.550,219.444
0.515,43.527,3.837,3.955,261.541,220.430,219.371
0.516,43.690,3.871,3.968,261.600,220.308,219.280
0.517,43.864,3.905,3.980,261.664,220.186,219.174
0.519,44.046,3.938,3.991,261.731,220.065,219.055
0.520,44.232,3.969,4.002,261.799,219.947,218.929
0.521,44.419,3.996,4.014,261.868,219.832,218.798
0.522,44.604,4.017,4.027,261.935,219.723,218.665
0.524,44.781,4.030,4.042,261.999,219.620,218.535
