"T","Distance","Radius","FreeRadius","X","Y","Z"
0.000,0.000,2.281,2.281,236.466,217.732,214.232
0.001,0.408,2.456,2.456,236.729,217.537,214.476
0.003,0.813,2.630,2.630,236.990,217.345,214.719
0.004,1.211,2.801,2.801,237.247,217.157,214.958
0.005,1.598,2.967,2.967,237.496,216.976,215.191
0.007,1.970,3.127,3.127,237.737,216.803,215.417
0.008,2.325,3.279,3.279,237.967,216.641,215.634
0.009,2.659,3.422,3.422,238.184,216.493,215.839
0.010,2.968,3.555,3.555,238.386,216.360,216.032
0.012,3.249,3.675,3.675,238.570,216.244,216.211
0.013,3.499,3.785,3.785,238.734,216.148,216.372
0.014,3.714,3.883,3.883,238.877,216.075,216.516
0.016,3.893,3.970,3.970,238.996,216.024,216.639
0.017,4.039,4.047,4.047,239.093,215.995,216.744
0.018,4.158,4.114,4.114,239.172,215.985,216.833
0.020,4.254,4.170,4.170,239.234,215.991,216.906
0.021,4.334,4.217,4.217,239.282,216.009,216.967
0.022,4.402,4.255,4.255,239.320,216.037,217.016
0.024,4.462,4.286,4.286,239.349,216.072,217.056
0.025,4.518,4.310,4.310,239.372,216.111,217.088
0.026,4.570,4.330,4.330,239.392,216.151,217.114
0.028,4.619,4.346,4.346,239.412,216.190,217.137
0.029,4.664,4.361,4.361,239.434,216.224,217.157
0.030,4.707,4.374,4.374,239.461,216.251,217.176
0.031,4.748,4.389,4.389,239.491,216.272,217.195
0.033,4.789,4.403,4.403,239.525,216.286,217.213
0.034,4.829,4.417,4.417,239.559,216.296,217.230
0.035,4.867,4.429,4.429,239.595,216.301,217.245
0.037,4.904,4.439,4.439,239.629,216.304,217.258
0.038,4.938,4.446,4.446,239.661,216.306,217.268
0.039,4.967,4.449,4.449,239.689,216.306,217.275
0.041,4.991,4.448,4.448,239.713,216.307,217.279
0.042,5.009,4.441,4.441,239.730,216.309,217.279
0.043,5.021,4.432,4.432,239.741,216.313,217.275
0.045,5.032,4.420,4.420,239.743,216.320,217.266
0.046,5.048,4.408,4.408,239.738,216.329,217.255
0.047,5.067,4.396,4.396,239.729,216.339,217.242
0.049,5.087,4.387,4.387,239.716,216.349,217.229
0.050,5.106,4.382,4.382,239.702,216.358,217.220
0.051,5.121,4.381,4.381,239.689,216.363,217.214
0.052,5.132,4.386,4.386,239.678,216.365,217.214
0.054,5.143,4.394,4.394,239.673,216.360,217.223
0.055,5.164,4.404,4.404,239.674,216.350,217.241
0.056,5.200,4.415,4.415,239.683,216.331,217.270
0.058,5.255,4.424,4.424,239.703,216.303,217.313
0.059,5.332,4.430,4.430,239.735,216.264,217.371
0.060,5.428,4.432,4.432,239.778,216.216,217.443
0.062,5.542,4.428,4.428,239.830,216.159,217.527
0.063,5.671,4.419,4.419,239.890,216.095,217.621
0.064,5.812,4.407,4.407,239.954,216.024,217.724
0.066,5.961,4.393,4.393,240.022,215.948,217.834
0.067,6.117,4.378,4.378,240.090,215.868,217.949
0.068,6.276,4.365,4.365,240.158,215.785,218.067
0.070,6.436,4.355,4.355,240.222,215.701,218.187
0.071,6.594,4.349,4.349,240.282,215.616,218.306
0.072,6.748,4.348,4.348,240.334,215.532,218.423
0.073,6.895,4.353,4.353,240.378,215.450,218.537
0.075,7.035,4.362,4.362,240.413,215.370,218.646
0.076,7.169,4.374,4.374,240.442,215.291,218.751
0.077,7.297,4.389,4.389,240.467,215.215,218.851
0.079,7.420,4.407,4.407,240.488,215.141,218.947
0.080,7.539,4.426,4.426,240.507,215.069,219.039
0.081,7.653,4.446,4.446,240.527,214.998,219.127
0.083,7.763,4.466,4.466,240.548,214.930,219.210
0.084,7.870,4.486,4.486,240.573,214.863,219.289
0.085,7.973,4.505,4.505,240.603,214.798,219.364
0.087,8.075,4.525,4.525,240.640,214.734,219.435
0.088,8.176,4.544,4.544,240.685,214.673,219.501
0.089,8.277,4.563,4.563,240.738,214.613,219.563
0.091,8.378,4.581,4.581,240.797,214.555,219.621
0.092,8.478,4.597,4.597,240.860,214.499,219.675
0.093,8.577,4.613,4.613,240.927,214.446,219.725
0.094,8.674,4.627,4.627,240.995,214.395,219.772
0.096,8.768,4.640,4.640,241.063,214.346,219.814
0.097,8.858,4.652,4.652,241.129,214.300,219.853
0.098,8.942,4.661,4.661,241.193,214.258,219.889
0.100,9.020,4.670,4.670,241.251,214.218,219.922
0.101,9.090,4.676,4.676,241.304,214.181,219.951
0.102,9.151,4.680,4.680,241.348,214.148,219.977
0.104,9.205,4.684,4.684,241.386,214.118,220.000
0.105,9.254,4.686,4.686,241.418,214.088,220.023
0.106,9.300,4.690,4.690,241.445,214.059,220.045
0.108,9.346,4.694,4.694,241.470,214.027,220.068
0.109,9.395,4.701,4.701,241.493,213.993,220.093
0.110,9.448,4.710,4.710,241.517,213.955,220.121
0.112,9.508,4.723,4.723,241.542,213.911,220.154
0.113,9.577,4.740,4.740,241.571,213.860,220.192
0.114,9.658,4.761,4.761,241.604,213.801,220.236
0.115,9.753,4.786,4.787,241.643,213.732,220.287
0.117,9.864,4.816,4.816,241.690,213.652,220.347
0.118,9.988,4.848,4.849,241.744,213.562,220.414
0.119,10.124,4.885,4.885,241.804,213.464,220.487
0.121,10.266,4.926,4.926,241.867,213.361,220.563
0.122,10.413,4.970,4.970,241.932,213.256,220.641
0.123,10.560,5.017,5.016,241.997,213.149,220.718
0.125,10.703,5.065,5.064,242.061,213.045,220.793
0.126,10.840,5.112,5.111,242.122,212.944,220.862
0.127,10.966,5.157,5.157,242.179,212.850,220.925
0.129,11.079,5.199,5.198,242.229,212.764,220.978
0.130,11.174,5.235,5.235,242.270,212.690,221.021
0.131,11.249,5.265,5.265,242.302,212.629,221.051
0.133,11.305,5.286,5.286,242.325,212.581,221.068
0.134,11.347,5.300,5.301,242.343,212.544,221.076
0.135,11.380,5.309,5.310,242.356,212.514,221.077
0.136,11.409,5.313,5.315,242.370,212.489,221.074
0.138,11.436,5.315,5.317,242.385,212.467,221.068
0.139,11.466,5.316,5.317,242.405,212.445,221.064
0.140,11.503,5.317,5.318,242.433,212.420,221.063
0.142,11.552,5.320,5.319,242.472,212.391,221.068
0.143,11.617,5.326,5.324,242.523,212.354,221.082
0.144,11.703,5.335,5.331,242.591,212.307,221.108
0.146,11.815,5.348,5.342,242.677,212.247,221.147
0.147,11.951,5.365,5.357,242.780,212.176,221.199
0.148,12.108,5.386,5.378,242.897,212.094,221.263
0.150,12.279,5.410,5.404,243.025,212.005,221.335
0.151,12.459,5.439,5.437,243.158,211.911,221.413
0.152,12.644,5.472,5.476,243.294,211.816,221.494
0.154,12.828,5.510,5.521,243.428,211.720,221.576
0.155,13.006,5.549,5.571,243.557,211.627,221.656
0.156,13.172,5.589,5.621,243.676,211.540,221.731
0.157,13.321,5.629,5.672,243.783,211.461,221.798
0.159,13.448,5.667,5.719,243.872,211.391,221.856
0.160,13.548,5.701,5.761,243.941,211.335,221.901
0.161,13.620,5.730,5.797,243.989,211.292,221.934
0.163,13.669,5.754,5.823,244.019,211.259,221.954
0.164,13.700,5.772,5.841,244.034,211.234,221.965
0.165,13.719,5.784,5.851,244.037,211.216,221.967
0.167,13.736,5.793,5.856,244.031,211.201,221.961
0.168,13.757,5.800,5.856,244.019,211.188,221.950
0.169,13.783,5.804,5.853,244.005,211.173,221.934
0.171,13.813,5.807,5.849,243.990,211.156,221.915
0.172,13.846,5.810,5.844,243.978,211.133,221.895
0.173,13.883,5.814,5.840,243.972,211.102,221.874
0.175,13.928,5.819,5.838,243.975,211.061,221.855
0.176,13.984,5.826,5.838,243.988,211.010,221.838
0.177,14.051,5.835,5.841,244.010,210.948,221.823
0.178,14.129,5.846,5.848,244.040,210.877,221.810
0.180,14.217,5.860,5.860,244.076,210.798,221.799
0.181,14.313,5.877,5.876,244.117,210.712,221.792
0.182,14.416,5.898,5.899,244.163,210.619,221.786
0.184,14.526,5.922,5.927,244.211,210.520,221.784
0.185,14.641,5.949,5.960,244.261,210.417,221.784
0.186,14.760,5.977,5.996,244.312,210.309,221.787
0.188,14.882,6.007,6.035,244.362,210.199,221.793
0.189,15.005,6.036,6.074,244.411,210.086,221.803
0.190,15.128,6.066,6.113,244.457,209.973,221.815
0.192,15.251,6.093,6.150,244.500,209.859,221.830
0.193,15.372,6.119,6.185,244.541,209.746,221.847
0.194,15.490,6.142,6.216,244.579,209.636,221.866
0.196,15.605,6.162,6.244,244.614,209.529,221.887
0.197,15.714,6.180,6.268,244.647,209.426,221.908
0.198,15.817,6.196,6.288,244.677,209.330,221.929
0.199,15.913,6.209,6.303,244.703,209.240,221.951
0.201,16.001,6.220,6.314,244.727,209.159,221.972
0.202,16.079,6.228,6.319,244.748,209.087,221.992
0.203,16.145,6.233,6.319,244.765,209.025,222.012
0.205,16.202,6.236,6.315,244.780,208.974,222.029
0.206,16.249,6.237,6.308,244.791,208.931,222.046
0.207,16.288,6.237,6.299,244.800,208.897,222.063
0.209,16.322,6.235,6.289,244.807,208.868,222.080
0.210,16.352,6.231,6.280,244.811,208.845,222.097
0.211,16.380,6.227,6.272,244.813,208.824,222.116
0.213,16.408,6.222,6.266,244.813,208.805,222.137
0.214,16.438,6.216,6.263,244.812,208.786,222.160
0.215,16.471,6.210,6.262,244.809,208.765,222.185
0.217,16.508,6.203,6.262,244.805,208.742,222.214
0.218,16.551,6.195,6.261,244.800,208.714,222.247
0.219,16.601,6.186,6.258,244.794,208.681,222.284
0.220,16.656,6.177,6.253,244.787,208.644,222.324
0.222,16.717,6.167,6.243,244.781,208.603,222.369
0.223,16.782,6.155,6.229,244.775,208.559,222.416
0.224,16.851,6.143,6.209,244.771,208.512,222.466
0.226,16.923,6.130,6.186,244.768,208.463,222.519
0.227,16.997,6.116,6.160,244.767,208.413,222.574
0.228,17.074,6.101,6.133,244.768,208.362,222.631
0.230,17.151,6.085,6.105,244.773,208.311,222.689
0.231,17.230,6.068,6.077,244.780,208.260,222.749
0.232,17.310,6.050,6.050,244.792,208.211,222.811
0.234,17.390,6.031,6.026,244.807,208.164,222.873
0.235,17.470,6.011,6.003,244.826,208.117,222.936
0.236,17.550,5.989,5.982,244.847,208.073,222.999
0.238,17.630,5.967,5.961,244.871,208.029,223.062
0.239,17.710,5.943,5.939,244.896,207.986,223.125
0.240,17.789,5.918,5.916,244.922,207.945,223.187
0.241,17.868,5.892,5.891,244.948,207.904,223.249
0.243,17.945,5.864,5.864,244.974,207.864,223.310
0.244,18.021,5.834,5.833,244.998,207.824,223.369
0.245,18.095,5.805,5.802,245.021,207.785,223.428
0.247,18.166,5.775,5.770,245.042,207.746,223.484
0.248,18.236,5.746,5.739,245.060,207.708,223.539
0.249,18.304,5.718,5.711,245.078,207.670,223.593
0.251,18.372,5.692,5.686,245.097,207.633,223.646
0.252,18.440,5.669,5.667,245.119,207.597,223.700
0.253,18.510,5.650,5.654,245.146,207.563,223.755
0.255,18.583,5.633,5.647,245.179,207.530,223.811
0.256,18.661,5.616,5.642,245.220,207.500,223.870
0.257,18.745,5.599,5.638,245.271,207.472,223.931
0.259,18.839,5.580,5.631,245.334,207.447,223.996
0.260,18.945,5.556,5.619,245.411,207.425,224.065
0.261,19.064,5.526,5.600,245.502,207.406,224.139
0.262,19.197,5.488,5.570,245.609,207.391,224.218
0.264,19.343,5.442,5.529,245.729,207.379,224.300
0.265,19.495,5.388,5.476,245.856,207.370,224.383
0.266,19.652,5.329,5.417,245.988,207.364,224.467
0.268,19.808,5.267,5.353,246.121,207.359,224.549
0.269,19.960,5.205,5.288,246.251,207.357,224.628
0.270,20.105,5.146,5.225,246.375,207.355,224.702
0.272,20.236,5.092,5.167,246.489,207.355,224.769
0.273,20.352,5.045,5.118,246.588,207.356,224.828
0.274,20.448,5.007,5.078,246.670,207.356,224.877
0.276,20.519,4.977,5.048,246.731,207.357,224.914
0.277,20.564,4.955,5.027,246.769,207.358,224.939
0.278,20.587,4.939,5.012,246.787,207.358,224.953
0.280,20.594,4.928,5.002,246.790,207.358,224.958
0.281,20.602,4.922,4.997,246.782,207.357,224.957
0.282,20.618,4.919,4.996,246.767,207.356,224.952
0.283,20.638,4.919,4.996,246.749,207.355,224.944
0.285,20.657,4.920,4.997,246.732,207.353,224.935
0.286,20.671,4.922,4.997,246.721,207.351,224.927
0.287,20.676,4.922,4.995,246.719,207.348,224.924
0.289,20.689,4.921,4.990,246.731,207.345,224.925
0.290,20.720,4.915,4.980,246.761,207.341,224.934
0.291,20.774,4.905,4.964,246.812,207.336,224.952
0.293,20.847,4.889,4.941,246.880,207.332,224.978
0.294,20.937,4.866,4.910,246.964,207.327,225.010
0.295,21.040,4.836,4.872,247.060,207.323,225.048
0.297,21.153,4.801,4.830,247.164,207.319,225.089
0.298,21.272,4.762,4.785,247.275,207.316,225.133
0.299,21.394,4.719,4.741,247.389,207.315,225.178
0.301,21.516,4.674,4.700,247.502,207.314,225.223
0.302,21.635,4.627,4.664,247.613,207.315,225.267
0.303,21.747,4.581,4.635,247.717,207.318,225.308
0.304,21.849,4.536,4.615,247.812,207.324,225.345
0.306,21.940,4.491,4.601,247.896,207.331,225.377
0.307,22.020,4.448,4.590,247.972,207.338,225.405
0.308,22.095,4.406,4.580,248.041,207.342,225.431
0.310,22.165,4.364,4.566,248.108,207.341,225.455
0.311,22.236,4.324,4.547,248.174,207.331,225.478
0.312,22.312,4.285,4.518,248.243,207.312,225.502
0.314,22.397,4.246,4.477,248.318,207.280,225.527
0.315,22.497,4.209,4.423,248.401,207.232,225.556
0.316,22.617,4.171,4.358,248.496,207.167,225.588
0.318,22.761,4.133,4.286,248.606,207.081,225.626
0.319,22.934,4.094,4.209,248.732,206.972,225.669
0.320,23.137,4.054,4.129,248.879,206.840,225.720
0.322,23.370,4.012,4.050,249.043,206.686,225.777
0.323,23.626,3.966,3.974,249.224,206.515,225.839
0.324,23.903,3.918,3.904,249.420,206.330,225.904
0.325,24.196,3.868,3.841,249.629,206.137,225.973
0.327,24.501,3.822,3.790,249.849,205.938,226.043
0.328,24.814,3.782,3.750,250.079,205.737,226.113
0.329,25.132,3.752,3.725,250.317,205.540,226.183
0.331,25.449,3.735,3.717,250.562,205.348,226.252
0.332,25.764,3.736,3.727,250.810,205.167,226.317
0.333,26.072,3.759,3.759,251.062,205.001,226.379
0.335,26.371,3.804,3.812,251.315,204.852,226.435
0.336,26.659,3.869,3.883,251.566,204.719,226.487
0.337,26.937,3.949,3.967,251.813,204.602,226.534
0.339,27.202,4.038,4.059,252.054,204.498,226.577
0.340,27.455,4.131,4.155,252.285,204.407,226.616
0.341,27.692,4.224,4.248,252.506,204.325,226.651
0.343,27.913,4.310,4.334,252.712,204.253,226.682
0.344,28.116,4.384,4.409,252.903,204.188,226.710
0.345,28.299,4.445,4.469,253.074,204.128,226.735
0.346,28.461,4.494,4.516,253.224,204.073,226.757
0.348,28.599,4.532,4.552,253.350,204.020,226.776
0.349,28.713,4.563,4.580,253.451,203.968,226.793
0.350,28.808,4.588,4.600,253.529,203.916,226.807
0.352,28.890,4.608,4.617,253.590,203.864,226.817
0.353,28.962,4.627,4.630,253.638,203.810,226.824
0.354,29.031,4.647,4.643,253.677,203.753,226.826
0.356,29.100,4.668,4.657,253.712,203.693,226.822
0.357,29.173,4.692,4.675,253.747,203.630,226.813
0.358,29.254,4.721,4.699,253.786,203.561,226.798
0.360,29.346,4.755,4.733,253.835,203.486,226.775
0.361,29.453,4.796,4.777,253.898,203.405,226.746
0.362,29.579,4.844,4.835,253.978,203.316,226.708
0.364,29.727,4.902,4.908,254.081,203.219,226.662
0.365,29.896,4.970,4.999,254.203,203.115,226.610
0.366,30.082,5.045,5.103,254.342,203.004,226.555
0.367,30.282,5.127,5.216,254.495,202.886,226.501
0.369,30.492,5.212,5.333,254.658,202.764,226.450
0.370,30.709,5.299,5.448,254.827,202.637,226.405
0.371,30.928,5.384,5.556,255.001,202.507,226.369
0.373,31.148,5.467,5.653,255.175,202.375,226.347
0.374,31.366,5.544,5.732,255.346,202.240,226.339
0.375,31.580,5.614,5.792,255.510,202.104,226.350
0.377,31.789,5.677,5.835,255.666,201.968,226.383
0.378,31.994,5.734,5.865,255.809,201.833,226.440
0.379,32.197,5.785,5.885,255.941,201.700,226.518
0.381,32.399,5.830,5.898,256.064,201.572,226.613
0.382,32.600,5.871,5.908,256.180,201.448,226.722
0.383,32.798,5.908,5.918,256.291,201.333,226.839
0.385,32.993,5.941,5.932,256.399,201.226,226.961
0.386,33.182,5.971,5.950,256.507,201.130,227.083
0.387,33.363,5.999,5.974,256.616,201.047,227.202
0.388,33.535,6.026,6.002,256.728,200.979,227.313
0.390,33.698,6.054,6.034,256.847,200.926,227.411
0.391,33.853,6.084,6.070,256.973,200.892,227.493
0.392,34.003,6.116,6.109,257.109,200.876,227.555
0.394,34.154,6.153,6.152,257.254,200.878,227.598
0.395,34.309,6.195,6.198,257.405,200.894,227.624
0.396,34.469,6.241,6.247,257.563,200.922,227.636
0.398,34.634,6.288,6.296,257.724,200.958,227.635
0.399,34.802,6.335,6.346,257.886,201.000,227.624
0.400,34.972,6.379,6.395,258.049,201.045,227.606
0.402,35.140,6.420,6.442,258.210,201.089,227.583
0.403,35.305,6.453,6.487,258.368,201.130,227.557
0.404,35.464,6.479,6.528,258.520,201.165,227.531
0.406,35.613,6.494,6.564,258.665,201.190,227.506
0.407,35.753,6.502,6.596,258.802,201.204,227.486
0.408,35.882,6.504,6.624,258.931,201.206,227.470
0.409,36.005,6.502,6.646,259.053,201.199,227.458
0.411,36.123,6.499,6.664,259.169,201.183,227.449
0.412,36.237,6.496,6.677,259.281,201.160,227.441
0.413,36.350,6.497,6.684,259.390,201.133,227.435
0.415,36.461,6.502,6.687,259.497,201.102,227.430
0.416,36.572,6.514,6.685,259.603,201.070,227.424
0.417,36.684,6.531,6.680,259.710,201.038,227.418
0.419,36.797,6.553,6.675,259.819,201.008,227.410
0.420,36.913,6.579,6.671,259.932,200.981,227.399
0.421,37.032,6.609,6.669,260.048,200.959,227.385
0.423,37.154,6.642,6.673,260.168,200.942,227.368
0.424,37.277,6.677,6.683,260.288,200.930,227.349
0.425,37.400,6.715,6.702,260.409,200.922,227.328
0.427,37.519,6.753,6.728,260.526,200.917,227.306
0.428,37.634,6.791,6.760,260.638,200.914,227.283
0.429,37.743,6.827,6.795,260.744,200.914,227.259
0.430,37.842,6.861,6.832,260.841,200.915,227.236
0.432,37.931,6.890,6.868,260.927,200.917,227.214
0.433,38.007,6.913,6.901,261.000,200.920,227.193
0.434,38.069,6.930,6.930,261.059,200.923,227.174
0.436,38.114,6.939,6.953,261.101,200.924,227.157
0.437,38.144,6.941,6.970,261.127,200.925,227.143
0.438,38.161,6.939,6.981,261.140,200.925,227.132
0.440,38.170,6.933,6.987,261.143,200.925,227.123
0.441,38.177,6.924,6.990,261.139,200.924,227.118
0.442,38.186,6.916,6.989,261.130,200.923,227.116
0.444,38.197,6.908,6.985,261.119,200.922,227.118
0.445,38.208,6.902,6.979,261.109,200.921,227.122
0.446,38.218,6.900,6.971,261.103,200.921,227.131
0.448,38.230,6.900,6.963,261.103,200.921,227.143
0.449,38.249,6.901,6.953,261.112,200.922,227.159
0.450,38.277,6.904,6.943,261.133,200.923,227.179
0.451,38.317,6.907,6.932,261.164,200.925,227.202
0.453,38.366,6.909,6.922,261.206,200.928,227.228
0.454,38.422,6.910,6.913,261.255,200.932,227.256
0.455,38.484,6.909,6.905,261.309,200.935,227.285
0.457,38.549,6.906,6.898,261.366,200.939,227.315
0.458,38.614,6.902,6.892,261.425,200.943,227.344
0.459,38.679,6.897,6.888,261.484,200.947,227.372
0.461,38.741,6.892,6.884,261.540,200.950,227.398
0.462,38.797,6.887,6.882,261.591,200.953,227.421
0.463,38.846,6.882,6.880,261.636,200.955,227.440
0.465,38.886,6.879,6.879,261.672,200.957,227.456
0.466,38.916,6.878,6.879,261.700,200.958,227.467
0.467,38.937,6.878,6.879,261.720,200.958,227.475
0.469,38.951,6.878,6.880,261.733,200.957,227.480
0.470,38.959,6.879,6.881,261.741,200.957,227.482
0.471,38.963,6.880,6.881,261.744,200.957,227.483
0.472,38.963,6.880,6.881,261.744,200.957,227.483
0.474,38.965,6.880,6.880,261.741,200.957,227.482
0.475,38.969,6.877,6.877,261.737,200.958,227.482
0.476,38.974,6.873,6.874,261.733,200.959,227.483
0.478,38.978,6.868,6.870,261.730,200.962,227.485
0.479,38.984,6.861,6.866,261.729,200.965,227.490
0.480,38.993,6.855,6.864,261.730,200.970,227.497
0.482,39.003,6.848,6.862,261.734,200.976,227.505
0.483,39.015,6.842,6.863,261.740,200.982,227.513
0.484,39.029,6.837,6.867,261.748,200.988,227.522
0.486,39.045,6.833,6.875,261.760,200.995,227.531
0.487,39.062,6.831,6.886,261.774,201.001,227.537
0.488,39.080,6.830,6.899,261.791,201.007,227.542
0.490,39.101,6.830,6.913,261.810,201.012,227.544
0.491,39.124,6.831,6.926,261.833,201.016,227.543
0.492,39.151,6.833,6.937,261.859,201.019,227.538
0.493,39.181,6.835,6.945,261.888,201.020,227.527
0.495,39.217,6.837,6.949,261.921,201.020,227.514
0.496,39.259,6.839,6.947,261.960,201.018,227.498
0.497,39.308,6.839,6.938,262.006,201.013,227.484
0.499,39.365,6.834,6.922,262.062,201.006,227.474
0.500,39.432,6.822,6.898,262.129,200.997,227.470
0.501,39.512,6.801,6.864,262.208,200.985,227.475
0.503,39.608,6.769,6.820,262.301,200.971,227.491
0.504,39.724,6.722,6.764,262.411,200.953,227.521
0.505,39.861,6.658,6.697,262.539,200.932,227.568
0.507,40.024,6.578,6.617,262.686,200.908,227.633
0.508,40.215,6.482,6.527,262.854,200.881,227.720
0.509,40.435,6.375,6.428,263.043,200.850,227.829
0.510,40.680,6.260,6.323,263.250,200.817,227.955
0.512,40.945,6.140,6.214,263.473,200.783,228.096
0.513,41.228,6.017,6.103,263.707,200.750,228.249
0.514,41.523,5.897,5.992,263.952,200.717,228.411
0.516,41.826,5.780,5.883,264.203,200.687,228.578
0.517,42.134,5.671,5.777,264.459,200.660,228.747
0.518,42.442,5.568,5.677,264.715,200.638,228.916
0.520,42.746,5.474,5.583,264.971,200.621,229.080
0.521,43.042,5.388,5.498,265.222,200.610,229.238
0.522,43.327,5.312,5.421,265.465,200.607,229.384
0.524,43.598,5.245,5.354,265.700,200.612,229.520
0.525,43.854,5.188,5.300,265.924,200.622,229.644
0.526,44.097,5.142,5.258,266.138,200.638,229.758
0.528,44.324,5.107,5.227,266.339,200.658,229.862
0.529,44.535,5.080,5.207,266.526,200.680,229.957
0.530,44.731,5.060,5.194,266.700,200.703,230.044
0.531,44.909,5.046,5.186,266.857,200.726,230.123
0.533,45.069,5.036,5.182,266.999,200.748,230.196
0.534,45.211,5.029,5.178,267.123,200.767,230.263
0.535,45.334,5.024,5.174,267.228,200.783,230.325
