"T","Distance","Radius","FreeRadius","X","Y","Z"
0.000,0.000,3.327,3.327,247.832,229.476,230.289
0.001,0.035,3.321,3.321,247.804,229.473,230.309
0.002,0.067,3.317,3.317,247.777,229.470,230.328
0.004,0.096,3.313,3.313,247.754,229.468,230.343
0.005,0.117,3.313,3.313,247.735,229.468,230.354
0.006,0.131,3.315,3.315,247.722,229.469,230.359
0.007,0.138,3.322,3.322,247.717,229.472,230.356
0.009,0.151,3.334,3.334,247.722,229.478,230.344
0.010,0.180,3.352,3.352,247.737,229.487,230.322
0.011,0.226,3.376,3.376,247.765,229.500,230.287
0.012,0.292,3.406,3.406,247.807,229.516,230.239
0.014,0.380,3.442,3.442,247.864,229.536,230.176
0.015,0.491,3.482,3.482,247.939,229.562,230.097
0.016,0.625,3.525,3.525,248.029,229.591,230.002
0.017,0.776,3.572,3.572,248.132,229.623,229.896
0.018,0.942,3.620,3.620,248.245,229.658,229.781
0.020,1.117,3.670,3.670,248.367,229.693,229.660
0.021,1.297,3.719,3.719,248.493,229.728,229.536
0.022,1.479,3.768,3.768,248.623,229.763,229.413
0.023,1.659,3.816,3.816,248.752,229.795,229.293
0.025,1.832,3.862,3.862,248.879,229.824,229.179
0.026,1.995,3.906,3.906,249.001,229.849,229.074
0.027,2.143,3.947,3.947,249.115,229.868,228.981
0.028,2.273,3.984,3.984,249.219,229.882,228.904
0.030,2.384,4.016,4.016,249.311,229.889,228.843
0.031,2.478,4.044,4.044,249.393,229.890,228.796
0.032,2.558,4.066,4.066,249.465,229.887,228.762
0.033,2.625,4.084,4.084,249.527,229.881,228.738
0.034,2.681,4.098,4.098,249.581,229.871,228.724
0.036,2.729,4.109,4.109,249.627,229.860,228.718
0.037,2.770,4.117,4.117,249.666,229.847,228.717
0.038,2.805,4.123,4.123,249.698,229.834,228.720
0.039,2.835,4.127,4.127,249.725,229.822,228.725
0.041,2.860,4.131,4.131,249.747,229.812,228.731
0.042,2.879,4.134,4.134,249.764,229.804,228.735
0.043,2.894,4.136,4.136,249.778,229.799,228.737
0.044,2.906,4.139,4.139,249.790,229.798,228.737
0.046,2.917,4.142,4.142,249.801,229.798,228.734
0.047,2.929,4.145,4.145,249.811,229.802,228.729
0.048,2.943,4.149,4.149,249.823,229.807,228.723
0.049,2.960,4.154,4.154,249.836,229.813,228.715
0.050,2.981,4.160,4.160,249.853,229.821,228.706
0.052,3.006,4.166,4.166,249.874,229.830,228.696
0.053,3.036,4.174,4.174,249.901,229.839,228.686
0.054,3.072,4.183,4.183,249.934,229.849,228.675
0.055,3.115,4.192,4.192,249.974,229.859,228.663
0.057,3.166,4.203,4.203,250.023,229.869,228.652
0.058,3.225,4.214,4.214,250.080,229.878,228.641
0.059,3.291,4.226,4.226,250.144,229.887,228.630
0.060,3.363,4.238,4.238,250.215,229.897,228.618
0.062,3.441,4.251,4.251,250.291,229.907,228.606
0.063,3.523,4.265,4.265,250.372,229.917,228.595
0.064,3.609,4.279,4.279,250.456,229.927,228.582
0.065,3.697,4.295,4.295,250.543,229.939,228.570
0.067,3.788,4.311,4.311,250.632,229.951,228.556
0.068,3.880,4.329,4.329,250.722,229.964,228.543
0.069,3.973,4.347,4.347,250.813,229.978,228.528
0.070,4.065,4.368,4.368,250.902,229.994,228.513
0.071,4.156,4.389,4.389,250.991,230.011,228.497
0.073,4.246,4.413,4.413,251.077,230.030,228.482
0.074,4.333,4.437,4.437,251.159,230.050,228.466
0.075,4.416,4.463,4.463,251.239,230.072,228.451
0.076,4.496,4.489,4.489,251.313,230.095,228.436
0.078,4.571,4.516,4.516,251.383,230.120,228.423
0.079,4.640,4.544,4.544,251.446,230.147,228.411
0.080,4.704,4.572,4.572,251.502,230.176,228.400
0.081,4.763,4.600,4.600,251.551,230.207,228.392
0.083,4.815,4.628,4.628,251.591,230.239,228.387
0.084,4.861,4.656,4.656,251.622,230.274,228.384
0.085,4.904,4.682,4.682,251.644,230.311,228.383
0.086,4.945,4.708,4.708,251.659,230.349,228.385
0.087,4.985,4.732,4.732,251.668,230.387,228.387
0.089,5.024,4.754,4.754,251.675,230.426,228.389
0.090,5.062,4.774,4.774,251.680,230.464,228.390
0.091,5.099,4.792,4.792,251.686,230.500,228.389
0.092,5.134,4.807,4.807,251.694,230.535,228.385
0.094,5.170,4.820,4.820,251.706,230.567,228.378
0.095,5.206,4.830,4.830,251.726,230.596,228.365
0.096,5.248,4.837,4.837,251.753,230.621,228.348
0.097,5.297,4.841,4.841,251.791,230.641,228.323
0.099,5.357,4.843,4.843,251.840,230.657,228.292
0.100,5.427,4.843,4.843,251.898,230.667,228.254
0.101,5.505,4.840,4.840,251.963,230.674,228.212
0.102,5.588,4.834,4.834,252.032,230.677,228.165
0.103,5.674,4.827,4.827,252.102,230.675,228.116
0.105,5.760,4.818,4.818,252.170,230.671,228.064
0.106,5.842,4.808,4.808,252.234,230.663,228.013
0.107,5.920,4.799,4.799,252.291,230.653,227.961
0.108,5.990,4.789,4.789,252.338,230.641,227.911
0.110,6.050,4.781,4.781,252.373,230.627,227.864
0.111,6.100,4.774,4.774,252.392,230.611,227.820
0.112,6.143,4.769,4.769,252.395,230.594,227.782
0.113,6.182,4.766,4.766,252.384,230.576,227.748
0.115,6.218,4.764,4.764,252.364,230.561,227.722
0.116,6.250,4.760,4.760,252.343,230.548,227.702
0.117,6.274,4.755,4.755,252.325,230.539,227.689
0.118,6.283,4.748,4.748,252.318,230.536,227.685
0.119,6.293,4.736,4.736,252.326,230.539,227.689
0.121,6.328,4.720,4.720,252.356,230.552,227.702
0.122,6.394,4.698,4.698,252.413,230.574,227.726
0.123,6.496,4.671,4.671,252.504,230.607,227.760
0.124,6.642,4.639,4.639,252.634,230.654,227.806
0.126,6.836,4.604,4.604,252.809,230.714,227.863
0.127,7.077,4.567,4.567,253.028,230.787,227.931
0.128,7.355,4.529,4.529,253.282,230.871,228.009
0.129,7.662,4.492,4.492,253.562,230.963,228.094
0.131,7.987,4.457,4.457,253.859,231.059,228.186
0.132,8.322,4.424,4.424,254.164,231.157,228.281
0.133,8.656,4.396,4.396,254.469,231.254,228.378
0.134,8.980,4.371,4.371,254.764,231.347,228.476
0.135,9.285,4.350,4.350,255.040,231.433,228.572
0.137,9.562,4.333,4.333,255.289,231.509,228.665
0.138,9.800,4.319,4.319,255.502,231.573,228.753
0.139,9.992,4.309,4.309,255.670,231.621,228.833
0.140,10.135,4.303,4.303,255.788,231.652,228.905
0.142,10.234,4.300,4.300,255.865,231.669,228.966
0.143,10.299,4.301,4.301,255.909,231.677,229.013
0.144,10.335,4.305,4.305,255.928,231.678,229.044
0.145,10.348,4.314,4.314,255.932,231.676,229.056
0.147,10.357,4.326,4.326,255.928,231.675,229.047
0.148,10.390,4.343,4.343,255.925,231.678,229.015
0.149,10.449,4.364,4.364,255.932,231.689,228.957
0.150,10.541,4.390,4.390,255.957,231.711,228.872
0.151,10.674,4.421,4.421,256.009,231.749,228.755
0.153,10.856,4.457,4.457,256.096,231.805,228.606
0.154,11.093,4.498,4.498,256.226,231.881,228.422
0.155,11.381,4.545,4.545,256.394,231.977,228.210
0.156,11.708,4.599,4.599,256.593,232.087,227.974
0.158,12.067,4.659,4.659,256.818,232.208,227.722
0.159,12.447,4.728,4.728,257.062,232.336,227.461
0.160,12.838,4.804,4.804,257.319,232.467,227.196
0.161,13.231,4.889,4.889,257.581,232.597,226.934
0.163,13.615,4.984,4.984,257.842,232.723,226.683
0.164,13.980,5.084,5.084,258.096,232.840,226.448
0.165,14.318,5.189,5.189,258.337,232.944,226.235
0.166,14.617,5.293,5.293,258.558,233.032,226.052
0.167,14.870,5.395,5.395,258.752,233.099,225.905
0.169,15.077,5.490,5.490,258.919,233.147,225.793
0.170,15.242,5.575,5.575,259.060,233.177,225.712
0.171,15.373,5.648,5.648,259.179,233.192,225.660
0.172,15.475,5.704,5.704,259.277,233.193,225.631
0.174,15.556,5.745,5.745,259.356,233.183,225.622
0.175,15.622,5.771,5.771,259.419,233.165,225.629
0.176,15.679,5.786,5.786,259.468,233.140,225.648
0.177,15.734,5.791,5.791,259.505,233.112,225.675
0.179,15.785,5.790,5.790,259.532,233.081,225.707
0.180,15.833,5.784,5.784,259.552,233.051,225.738
0.181,15.875,5.777,5.777,259.566,233.024,225.767
0.182,15.908,5.769,5.769,259.576,233.001,225.789
0.183,15.934,5.763,5.763,259.583,232.983,225.806
0.185,15.953,5.759,5.759,259.588,232.969,225.818
0.186,15.965,5.757,5.757,259.590,232.959,225.824
0.187,15.969,5.756,5.756,259.590,232.955,225.826
0.188,15.973,5.758,5.758,259.589,232.955,225.823
0.190,15.982,5.761,5.761,259.587,232.960,225.815
0.191,15.998,5.767,5.767,259.585,232.971,225.804
0.192,16.020,5.775,5.775,259.583,232.987,225.788
0.193,16.048,5.784,5.784,259.582,233.008,225.770
0.195,16.083,5.796,5.796,259.583,233.035,225.747
0.196,16.124,5.809,5.808,259.585,233.067,225.722
0.197,16.171,5.823,5.823,259.588,233.104,225.694
0.198,16.222,5.838,5.838,259.593,233.145,225.663
0.200,16.278,5.854,5.854,259.598,233.189,225.629
0.201,16.337,5.871,5.871,259.605,233.235,225.593
0.202,16.398,5.887,5.887,259.613,233.282,225.555
0.203,16.461,5.904,5.904,259.621,233.330,225.515
0.204,16.526,5.921,5.921,259.630,233.378,225.473
0.206,16.590,5.937,5.937,259.639,233.425,225.429
0.207,16.655,5.952,5.953,259.648,233.470,225.383
0.208,16.718,5.967,5.968,259.657,233.512,225.337
0.209,16.780,5.981,5.982,259.666,233.550,225.289
0.211,16.841,5.994,5.995,259.675,233.585,225.240
0.212,16.901,6.006,6.006,259.684,233.618,225.190
0.213,16.962,6.017,6.016,259.693,233.649,225.139
0.214,17.023,6.026,6.025,259.703,233.679,225.087
0.216,17.085,6.036,6.033,259.715,233.709,225.034
0.217,17.147,6.045,6.042,259.728,233.739,224.980
0.218,17.212,6.055,6.052,259.743,233.769,224.925
0.219,17.278,6.067,6.063,259.759,233.802,224.870
0.220,17.347,6.081,6.078,259.778,233.837,224.814
0.222,17.419,6.097,6.096,259.800,233.875,224.757
0.223,17.494,6.116,6.117,259.825,233.916,224.699
0.224,17.573,6.137,6.143,259.852,233.961,224.640
0.225,17.654,6.160,6.171,259.881,234.008,224.582
0.227,17.736,6.183,6.201,259.912,234.057,224.523
0.228,17.818,6.205,6.230,259.945,234.105,224.465
0.229,17.900,6.225,6.259,259.977,234.153,224.408
0.230,17.979,6.241,6.286,260.009,234.198,224.351
0.232,18.055,6.253,6.310,260.041,234.240,224.295
0.233,18.128,6.259,6.329,260.071,234.278,224.241
0.234,18.196,6.258,6.343,260.100,234.309,224.189
0.235,18.258,6.252,6.352,260.125,234.335,224.138
0.236,18.314,6.242,6.355,260.148,234.352,224.090
0.238,18.365,6.228,6.353,260.168,234.361,224.044
0.239,18.413,6.211,6.345,260.186,234.363,224.000
0.240,18.460,6.192,6.332,260.204,234.359,223.956
0.241,18.508,6.172,6.313,260.223,234.349,223.912
0.243,18.560,6.153,6.288,260.244,234.335,223.868
0.244,18.614,6.134,6.257,260.269,234.318,223.822
0.245,18.674,6.114,6.221,260.298,234.298,223.774
0.246,18.740,6.094,6.182,260.335,234.277,223.723
0.248,18.813,6.073,6.139,260.379,234.256,223.669
0.249,18.895,6.049,6.094,260.432,234.235,223.610
0.250,18.988,6.022,6.048,260.496,234.217,223.546
0.251,19.092,5.991,6.002,260.571,234.200,223.476
0.252,19.206,5.955,5.956,260.656,234.186,223.401
0.254,19.329,5.915,5.911,260.749,234.175,223.321
0.255,19.460,5.870,5.868,260.849,234.165,223.237
0.256,19.597,5.822,5.826,260.953,234.156,223.149
0.257,19.738,5.772,5.786,261.060,234.148,223.057
0.259,19.881,5.722,5.745,261.168,234.141,222.963
0.260,20.025,5.672,5.706,261.275,234.135,222.867
0.261,20.169,5.624,5.666,261.379,234.128,222.769
0.262,20.309,5.579,5.627,261.479,234.121,222.670
0.264,20.446,5.538,5.587,261.572,234.114,222.570
0.265,20.577,5.502,5.548,261.657,234.105,222.470
0.266,20.703,5.469,5.509,261.734,234.096,222.371
0.267,20.824,5.440,5.473,261.805,234.087,222.274
0.268,20.940,5.414,5.440,261.870,234.078,222.178
0.270,21.051,5.391,5.409,261.931,234.070,222.086
0.271,21.156,5.370,5.383,261.989,234.064,221.998
0.272,21.257,5.351,5.362,262.046,234.060,221.915
0.273,21.353,5.334,5.347,262.102,234.058,221.838
0.275,21.444,5.319,5.337,262.160,234.059,221.767
0.276,21.531,5.304,5.330,262.219,234.064,221.704
0.277,21.615,5.289,5.326,262.282,234.073,221.649
0.278,21.697,5.274,5.323,262.349,234.087,221.603
0.280,21.780,5.259,5.318,262.421,234.105,221.566
0.281,21.863,5.242,5.312,262.496,234.127,221.538
0.282,21.946,5.223,5.301,262.572,234.151,221.517
0.283,22.027,5.201,5.286,262.649,234.177,221.504
0.284,22.107,5.178,5.265,262.723,234.203,221.497
0.286,22.183,5.153,5.240,262.795,234.228,221.495
0.287,22.254,5.128,5.213,262.862,234.251,221.499
0.288,22.318,5.103,5.186,262.922,234.272,221.506
0.289,22.374,5.081,5.160,262.975,234.288,221.518
0.291,22.421,5.061,5.138,263.018,234.299,221.531
0.292,22.457,5.045,5.121,263.050,234.305,221.547
0.293,22.484,5.033,5.112,263.071,234.304,221.564
0.294,22.507,5.027,5.110,263.084,234.299,221.581
0.296,22.527,5.024,5.113,263.092,234.292,221.599
0.297,22.546,5.022,5.119,263.099,234.285,221.616
0.298,22.565,5.017,5.124,263.109,234.282,221.631
0.299,22.586,5.009,5.125,263.124,234.284,221.645
0.300,22.615,4.995,5.119,263.149,234.294,221.656
0.302,22.659,4.971,5.104,263.188,234.315,221.664
0.303,22.723,4.937,5.076,263.242,234.348,221.669
0.304,22.812,4.889,5.032,263.317,234.396,221.669
0.305,22.931,4.831,4.975,263.416,234.461,221.663
0.307,23.082,4.764,4.908,263.541,234.546,221.653
0.308,23.263,4.691,4.832,263.689,234.648,221.636
0.309,23.469,4.615,4.751,263.857,234.765,221.614
0.310,23.694,4.538,4.668,264.040,234.894,221.587
0.312,23.933,4.464,4.585,264.234,235.031,221.555
0.313,24.182,4.394,4.505,264.433,235.174,221.517
0.314,24.434,4.332,4.431,264.634,235.320,221.474
0.315,24.684,4.277,4.362,264.832,235.466,221.426
0.317,24.929,4.228,4.299,265.023,235.609,221.374
0.318,25.161,4.184,4.240,265.202,235.746,221.317
0.319,25.378,4.143,4.184,265.366,235.874,221.255
0.320,25.574,4.105,4.132,265.509,235.991,221.189
0.321,25.751,4.067,4.082,265.633,236.096,221.119
0.323,25.913,4.029,4.033,265.741,236.193,221.046
0.324,26.066,3.990,3.986,265.837,236.284,220.971
0.325,26.213,3.950,3.939,265.926,236.373,220.894
0.326,26.359,3.911,3.897,266.011,236.462,220.816
0.328,26.507,3.877,3.861,266.096,236.554,220.739
0.329,26.660,3.849,3.834,266.187,236.652,220.663
0.330,26.823,3.830,3.818,266.285,236.759,220.588
0.331,27.001,3.823,3.814,266.396,236.877,220.516
0.333,27.197,3.831,3.827,266.524,237.010,220.448
0.334,27.418,3.855,3.857,266.673,237.159,220.384
0.335,27.663,3.896,3.905,266.842,237.327,220.324
0.336,27.930,3.951,3.968,267.030,237.509,220.269
0.337,28.213,4.019,4.044,267.229,237.703,220.217
0.339,28.507,4.097,4.128,267.438,237.904,220.168
0.340,28.806,4.181,4.218,267.649,238.110,220.121
0.341,29.106,4.269,4.310,267.860,238.318,220.077
0.342,29.399,4.359,4.402,268.066,238.523,220.034
0.344,29.682,4.448,4.489,268.261,238.723,219.991
0.345,29.949,4.533,4.570,268.443,238.915,219.949
0.346,30.195,4.614,4.645,268.605,239.094,219.907
0.347,30.414,4.689,4.714,268.744,239.258,219.864
0.349,30.603,4.759,4.776,268.856,239.404,219.819
0.350,30.767,4.822,4.832,268.944,239.534,219.774
0.351,30.908,4.878,4.881,269.011,239.648,219.727
0.352,31.031,4.925,4.925,269.061,239.750,219.678
0.353,31.140,4.964,4.963,269.096,239.840,219.628
0.355,31.240,4.992,4.996,269.121,239.921,219.575
0.356,31.332,5.013,5.024,269.138,239.995,219.522
0.357,31.421,5.027,5.048,269.151,240.062,219.466
0.358,31.507,5.037,5.069,269.163,240.125,219.408
0.360,31.594,5.045,5.089,269.178,240.187,219.348
0.361,31.684,5.052,5.108,269.199,240.247,219.286
0.362,31.778,5.060,5.127,269.228,240.309,219.222
0.363,31.877,5.072,5.148,269.266,240.373,219.156
0.365,31.980,5.088,5.171,269.312,240.437,219.089
0.366,32.087,5.110,5.196,269.364,240.501,219.021
0.367,32.195,5.135,5.222,269.420,240.565,218.955
0.368,32.304,5.164,5.250,269.480,240.629,218.889
0.369,32.412,5.195,5.277,269.541,240.691,218.825
0.371,32.518,5.227,5.304,269.602,240.752,218.764
0.372,32.620,5.259,5.330,269.662,240.810,218.706
0.373,32.716,5.291,5.354,269.720,240.866,218.653
0.374,32.806,5.321,5.376,269.774,240.918,218.604
0.376,32.887,5.348,5.395,269.822,240.967,218.560
0.377,32.959,5.374,5.412,269.864,241.012,218.522
0.378,33.024,5.396,5.428,269.902,241.053,218.489
0.379,33.083,5.416,5.443,269.936,241.092,218.461
0.381,33.137,5.433,5.459,269.967,241.129,218.436
0.382,33.188,5.447,5.475,269.997,241.164,218.415
0.383,33.236,5.457,5.492,270.026,241.198,218.396
0.384,33.284,5.464,5.512,270.055,241.231,218.379
0.385,33.332,5.467,5.534,270.085,241.265,218.363
0.387,33.381,5.469,5.557,270.117,241.299,218.348
0.388,33.433,5.469,5.581,270.153,241.334,218.333
0.389,33.489,5.470,5.605,270.193,241.370,218.318
0.390,33.550,5.473,5.627,270.237,241.409,218.302
0.392,33.616,5.478,5.649,270.287,241.449,218.284
0.393,33.687,5.488,5.667,270.341,241.489,218.263
0.394,33.763,5.504,5.683,270.400,241.529,218.237
0.395,33.844,5.525,5.694,270.464,241.569,218.206
0.397,33.931,5.551,5.702,270.532,241.607,218.169
0.398,34.023,5.579,5.707,270.605,241.644,218.125
0.399,34.122,5.609,5.710,270.682,241.677,218.073
0.400,34.229,5.637,5.710,270.763,241.707,218.011
0.401,34.343,5.663,5.708,270.848,241.733,217.939
0.403,34.468,5.684,5.705,270.938,241.755,217.856
0.404,34.602,5.699,5.701,271.032,241.772,217.761
0.405,34.746,5.707,5.696,271.130,241.785,217.657
0.406,34.897,5.708,5.692,271.234,241.796,217.548
0.408,35.053,5.706,5.689,271.345,241.808,217.439
0.409,35.212,5.703,5.688,271.463,241.822,217.332
0.410,35.374,5.701,5.691,271.588,241.840,217.232
0.411,35.538,5.703,5.697,271.723,241.864,217.142
0.413,35.703,5.711,5.709,271.867,241.896,217.067
0.414,35.873,5.727,5.727,272.022,241.938,217.010
0.415,36.051,5.754,5.752,272.187,241.992,216.976
0.416,36.241,5.792,5.785,272.365,242.060,216.967
0.417,36.450,5.838,5.825,272.555,242.143,216.988
0.419,36.678,5.891,5.871,272.756,242.240,217.037
0.420,36.924,5.949,5.925,272.964,242.349,217.110
0.421,37.183,6.010,5.986,273.177,242.466,217.201
0.422,37.450,6.073,6.053,273.389,242.588,217.307
0.424,37.720,6.135,6.126,273.599,242.712,217.424
0.425,37.987,6.195,6.207,273.802,242.836,217.545
0.426,38.245,6.252,6.292,273.995,242.955,217.668
0.427,38.489,6.305,6.379,274.175,243.068,217.787
0.429,38.711,6.355,6.466,274.338,243.171,217.897
0.430,38.907,6.400,6.549,274.481,243.262,217.995
0.431,39.069,6.440,6.626,274.600,243.336,218.076
0.432,39.196,6.476,6.695,274.695,243.394,218.138
0.433,39.292,6.507,6.751,274.768,243.437,218.183
0.435,39.361,6.532,6.794,274.823,243.467,218.213
0.436,39.409,6.552,6.821,274.863,243.485,218.231
0.437,39.438,6.568,6.835,274.890,243.494,218.239
0.438,39.457,6.581,6.839,274.908,243.495,218.239
0.440,39.471,6.592,6.835,274.920,243.491,218.233
0.441,39.486,6.602,6.827,274.929,243.482,218.224
0.442,39.503,6.613,6.816,274.939,243.472,218.214
0.443,39.522,6.625,6.805,274.951,243.461,218.205
0.445,39.543,6.640,6.798,274.970,243.452,218.199
0.446,39.571,6.659,6.795,274.997,243.446,218.199
0.447,39.606,6.680,6.796,275.031,243.444,218.202
0.448,39.647,6.702,6.801,275.072,243.444,218.210
0.450,39.694,6.724,6.807,275.118,243.446,218.221
0.451,39.746,6.744,6.815,275.167,243.451,218.234
0.452,39.800,6.763,6.823,275.219,243.457,218.248
0.453,39.855,6.777,6.830,275.272,243.465,218.263
0.454,39.911,6.787,6.835,275.324,243.475,218.278
0.456,39.965,6.791,6.838,275.375,243.485,218.293
0.457,40.016,6.790,6.838,275.423,243.496,218.305
0.458,40.062,6.785,6.836,275.467,243.508,218.315
0.459,40.103,6.777,6.833,275.506,243.520,218.323
0.461,40.139,6.768,6.827,275.539,243.532,218.327
0.462,40.171,6.759,6.822,275.569,243.544,218.329
0.463,40.200,6.750,6.815,275.595,243.557,218.329
0.464,40.226,6.744,6.809,275.617,243.570,218.327
0.466,40.251,6.741,6.803,275.638,243.583,218.324
0.467,40.275,6.741,6.797,275.658,243.596,218.321
0.468,40.298,6.744,6.792,275.676,243.610,218.318
0.469,40.322,6.749,6.788,275.695,243.625,218.314
0.470,40.347,6.756,6.784,275.715,243.639,218.312
0.472,40.373,6.763,6.782,275.737,243.655,218.311
0.473,40.402,6.770,6.780,275.760,243.671,218.312
0.474,40.433,6.777,6.780,275.787,243.687,218.314
0.475,40.466,6.782,6.780,275.815,243.704,218.318
0.477,40.502,6.787,6.782,275.846,243.721,218.323
0.478,40.539,6.790,6.784,275.878,243.739,218.329
0.479,40.578,6.792,6.787,275.912,243.757,218.336
0.480,40.618,6.793,6.790,275.947,243.776,218.344
0.482,40.660,6.795,6.793,275.983,243.794,218.352
0.483,40.702,6.797,6.796,276.020,243.814,218.360
0.484,40.745,6.798,6.799,276.057,243.833,218.367
0.485,40.788,6.801,6.800,276.094,243.853,218.375
0.486,40.831,6.804,6.801,276.132,243.872,218.381
0.488,40.874,6.808,6.802,276.169,243.892,218.387
0.489,40.916,6.812,6.803,276.206,243.912,218.393
0.490,40.959,6.816,6.805,276.243,243.932,218.399
0.491,41.001,6.820,6.808,276.280,243.952,218.404
0.493,41.043,6.824,6.813,276.317,243.973,218.411
0.494,41.085,6.827,6.820,276.353,243.993,218.418
0.495,41.127,6.830,6.831,276.389,244.012,218.427
0.496,41.170,6.831,6.844,276.425,244.032,218.438
0.498,41.212,6.832,6.861,276.461,244.052,218.450
0.499,41.255,6.832,6.878,276.496,244.071,218.465
0.500,41.299,6.831,6.897,276.531,244.090,218.482
0.501,41.343,6.830,6.916,276.566,244.109,218.502
0.502,41.389,6.828,6.933,276.601,244.128,218.525
