"T","Distance","Radius","FreeRadius","X","Y","Z"
0.000,0.000,1.318,1.318,221.119,178.133,179.783
0.001,0.100,1.341,1.341,221.085,178.222,179.813
0.002,0.198,1.363,1.363,221.050,178.309,179.839
0.003,0.295,1.387,1.387,221.012,178.396,179.860
0.004,0.390,1.411,1.411,220.970,178.481,179.871
0.005,0.484,1.436,1.436,220.923,178.563,179.870
0.006,0.581,1.463,1.463,220.870,178.641,179.853
0.007,0.684,1.492,1.492,220.809,178.716,179.817
0.008,0.798,1.523,1.523,220.738,178.786,179.759
0.010,0.931,1.556,1.556,220.658,178.851,179.677
0.011,1.086,1.592,1.592,220.566,178.909,179.566
0.012,1.267,1.631,1.631,220.463,178.962,179.426
0.013,1.470,1.671,1.671,220.350,179.008,179.264
0.014,1.687,1.712,1.712,220.233,179.047,179.086
0.015,1.913,1.752,1.752,220.113,179.081,178.898
0.016,2.140,1.790,1.790,219.994,179.108,178.706
0.017,2.360,1.826,1.826,219.880,179.130,178.519
0.018,2.568,1.859,1.859,219.773,179.146,178.341
0.019,2.756,1.887,1.887,219.677,179.156,178.180
0.020,2.916,1.910,1.910,219.596,179.161,178.043
0.021,3.041,1.927,1.927,219.531,179.160,177.935
0.022,3.130,1.938,1.938,219.486,179.154,177.859
0.023,3.189,1.945,1.945,219.456,179.144,177.809
0.024,3.224,1.947,1.947,219.440,179.131,177.781
0.025,3.244,1.948,1.948,219.436,179.116,177.769
0.027,3.261,1.946,1.946,219.440,179.099,177.767
0.028,3.282,1.943,1.943,219.451,179.081,177.771
0.029,3.306,1.941,1.941,219.466,179.064,177.775
0.030,3.329,1.939,1.939,219.483,179.048,177.773
0.031,3.354,1.939,1.939,219.500,179.034,177.761
0.032,3.387,1.941,1.941,219.514,179.023,177.733
0.033,3.434,1.945,1.945,219.523,179.015,177.688
0.034,3.493,1.949,1.949,219.530,179.009,177.630
0.035,3.563,1.954,1.954,219.534,179.003,177.559
0.036,3.642,1.959,1.959,219.536,178.998,177.481
0.037,3.727,1.963,1.963,219.536,178.992,177.396
0.038,3.815,1.967,1.967,219.536,178.984,177.309
0.039,3.904,1.968,1.968,219.535,178.973,177.221
0.040,3.990,1.967,1.967,219.534,178.958,177.135
0.041,4.073,1.963,1.963,219.534,178.939,177.055
0.042,4.149,1.957,1.957,219.536,178.915,176.982
0.044,4.221,1.950,1.950,219.539,178.886,176.917
0.045,4.289,1.941,1.941,219.544,178.856,176.857
0.046,4.354,1.933,1.933,219.552,178.825,176.800
0.047,4.417,1.924,1.924,219.563,178.797,176.744
0.048,4.480,1.918,1.918,219.577,178.773,176.688
0.049,4.544,1.913,1.913,219.596,178.756,176.629
0.050,4.611,1.910,1.910,219.618,178.747,176.566
0.051,4.686,1.911,1.911,219.646,178.749,176.497
0.052,4.772,1.915,1.915,219.679,178.765,176.419
0.053,4.871,1.923,1.923,219.717,178.794,176.332
0.054,4.983,1.932,1.932,219.760,178.837,176.238
0.055,5.103,1.943,1.943,219.805,178.890,176.140
0.056,5.228,1.955,1.955,219.850,178.950,176.040
0.057,5.353,1.967,1.967,219.893,179.015,175.943
0.058,5.474,1.980,1.980,219.934,179.083,175.851
0.059,5.587,1.992,1.992,219.969,179.150,175.768
0.061,5.687,2.002,2.002,219.998,179.215,175.697
0.062,5.771,2.010,2.010,220.018,179.273,175.640
0.063,5.835,2.017,2.017,220.027,179.324,175.602
0.064,5.880,2.020,2.020,220.026,179.365,175.583
0.065,5.912,2.021,2.021,220.016,179.395,175.580
0.066,5.938,2.018,2.018,220.000,179.414,175.589
0.067,5.962,2.011,2.011,219.983,179.423,175.603
0.068,5.985,2.000,2.000,219.968,179.421,175.620
0.069,6.007,1.984,1.984,219.956,179.407,175.634
0.070,6.033,1.964,1.964,219.953,179.383,175.641
0.071,6.070,1.939,1.939,219.961,179.347,175.636
0.072,6.126,1.908,1.908,219.983,179.300,175.614
0.073,6.208,1.873,1.873,220.023,179.242,175.572
0.074,6.320,1.836,1.836,220.081,179.173,175.507
0.075,6.458,1.797,1.797,220.155,179.094,175.421
0.076,6.618,1.757,1.757,220.241,179.007,175.317
0.077,6.795,1.718,1.718,220.335,178.914,175.199
0.079,6.986,1.680,1.680,220.433,178.816,175.069
0.080,7.185,1.644,1.644,220.534,178.715,174.930
0.081,7.389,1.613,1.613,220.632,178.612,174.784
0.082,7.592,1.586,1.586,220.725,178.508,174.635
0.083,7.792,1.563,1.563,220.809,178.406,174.486
0.084,7.983,1.545,1.545,220.880,178.307,174.339
0.085,8.164,1.531,1.531,220.939,178.213,174.196
0.086,8.333,1.520,1.520,220.986,178.124,174.060
0.087,8.488,1.513,1.513,221.022,178.042,173.933
0.088,8.629,1.509,1.509,221.051,177.968,173.817
0.089,8.753,1.507,1.507,221.074,177.904,173.713
0.090,8.859,1.507,1.507,221.091,177.851,173.623
0.091,8.944,1.510,1.510,221.106,177.810,173.550
0.092,9.006,1.514,1.514,221.120,177.782,173.496
0.093,9.045,1.519,1.519,221.134,177.770,173.462
0.094,9.066,1.525,1.525,221.150,177.773,173.450
0.096,9.090,1.532,1.532,221.167,177.789,173.456
0.097,9.122,1.540,1.540,221.184,177.809,173.475
0.098,9.156,1.548,1.548,221.199,177.828,173.499
0.099,9.184,1.556,1.556,221.210,177.839,173.522
0.100,9.201,1.563,1.563,221.216,177.835,173.537
0.101,9.227,1.570,1.570,221.213,177.809,173.539
0.102,9.286,1.577,1.577,221.201,177.755,173.520
0.103,9.389,1.583,1.583,221.178,177.665,173.474
0.104,9.546,1.590,1.590,221.142,177.534,173.395
0.105,9.766,1.598,1.598,221.091,177.356,173.277
0.106,10.039,1.609,1.609,221.028,177.137,173.126
0.107,10.354,1.623,1.623,220.956,176.887,172.949
0.108,10.696,1.641,1.641,220.877,176.617,172.755
0.109,11.053,1.663,1.663,220.795,176.336,172.551
0.110,11.411,1.691,1.691,220.713,176.055,172.345
0.111,11.757,1.726,1.726,220.633,175.783,172.146
0.113,12.077,1.767,1.767,220.560,175.531,171.962
0.114,12.360,1.813,1.813,220.495,175.309,171.800
0.115,12.591,1.861,1.861,220.443,175.126,171.669
0.116,12.761,1.910,1.910,220.405,174.990,171.574
0.117,12.876,1.959,1.959,220.380,174.897,171.512
0.118,12.944,2.005,2.005,220.367,174.841,171.476
0.119,12.974,2.046,2.046,220.365,174.815,171.461
0.120,12.980,2.081,2.081,220.371,174.814,171.461
0.121,13.005,2.108,2.108,220.385,174.831,171.471
0.122,13.043,2.126,2.126,220.405,174.861,171.485
0.123,13.088,2.135,2.135,220.429,174.897,171.497
0.124,13.134,2.137,2.137,220.457,174.933,171.502
0.125,13.177,2.134,2.134,220.486,174.964,171.494
0.126,13.220,2.127,2.127,220.514,174.984,171.470
0.127,13.268,2.118,2.118,220.541,174.993,171.431
0.128,13.325,2.109,2.109,220.564,174.989,171.380
0.130,13.392,2.101,2.101,220.581,174.971,171.317
0.131,13.472,2.097,2.097,220.591,174.938,171.245
0.132,13.565,2.097,2.097,220.591,174.888,171.166
0.133,13.673,2.103,2.103,220.579,174.822,171.081
0.134,13.798,2.115,2.115,220.554,174.737,170.993
0.135,13.942,2.131,2.131,220.513,174.632,170.904
0.136,14.106,2.150,2.150,220.455,174.507,170.815
0.137,14.290,2.173,2.173,220.381,174.363,170.727
0.138,14.489,2.198,2.198,220.294,174.205,170.643
0.139,14.698,2.225,2.225,220.199,174.037,170.563
0.140,14.910,2.253,2.253,220.099,173.865,170.489
0.141,15.120,2.281,2.281,219.998,173.695,170.420
0.142,15.321,2.309,2.309,219.900,173.529,170.360
0.143,15.508,2.336,2.336,219.810,173.375,170.308
0.144,15.673,2.361,2.361,219.731,173.236,170.266
0.145,15.811,2.384,2.384,219.667,173.117,170.235
0.146,15.916,2.404,2.404,219.622,173.024,170.216
0.148,15.991,2.421,2.421,219.595,172.955,170.209
0.149,16.041,2.434,2.434,219.580,172.907,170.210
0.150,16.076,2.442,2.442,219.572,172.875,170.219
0.151,16.101,2.445,2.445,219.566,172.854,170.233
0.152,16.125,2.443,2.443,219.558,172.841,170.251
0.153,16.151,2.435,2.435,219.541,172.831,170.269
0.154,16.188,2.420,2.420,219.510,172.820,170.286
0.155,16.242,2.399,2.399,219.462,172.803,170.300
0.156,16.319,2.372,2.372,219.389,172.776,170.310
0.157,16.428,2.338,2.338,219.289,172.735,170.312
0.158,16.565,2.296,2.296,219.162,172.682,170.310
0.159,16.728,2.248,2.248,219.013,172.618,170.306
0.160,16.911,2.193,2.193,218.844,172.547,170.303
0.161,17.109,2.130,2.130,218.661,172.470,170.305
0.162,17.319,2.060,2.060,218.467,172.392,170.315
0.163,17.537,1.985,1.985,218.265,172.313,170.335
0.165,17.758,1.907,1.907,218.060,172.238,170.370
0.166,17.980,1.830,1.830,217.855,172.167,170.423
0.167,18.202,1.756,1.756,217.655,172.105,170.496
0.168,18.423,1.687,1.687,217.463,172.054,170.591
0.169,18.644,1.628,1.628,217.279,172.012,170.707
0.170,18.866,1.580,1.580,217.105,171.979,170.839
0.171,19.088,1.547,1.547,216.940,171.954,170.985
0.172,19.308,1.531,1.531,216.784,171.936,171.141
0.173,19.526,1.533,1.533,216.639,171.924,171.302
0.174,19.738,1.552,1.552,216.504,171.917,171.466
0.175,19.943,1.583,1.583,216.380,171.915,171.629
0.176,20.137,1.623,1.623,216.268,171.916,171.788
0.177,20.319,1.671,1.671,216.167,171.920,171.939
0.178,20.485,1.722,1.722,216.079,171.925,172.079
0.179,20.636,1.774,1.774,216.001,171.932,172.209
0.180,20.773,1.824,1.824,215.933,171.940,172.328
0.182,20.897,1.869,1.869,215.876,171.949,172.437
0.183,21.007,1.905,1.905,215.827,171.958,172.535
0.184,21.104,1.933,1.933,215.786,171.968,172.623
0.185,21.190,1.953,1.953,215.753,171.978,172.701
0.186,21.264,1.967,1.967,215.726,171.987,172.770
0.187,21.327,1.974,1.974,215.706,171.996,172.828
0.188,21.379,1.977,1.977,215.690,172.005,172.877
0.189,21.421,1.976,1.976,215.678,172.013,172.917
0.190,21.457,1.971,1.971,215.668,172.021,172.950
0.191,21.489,1.964,1.964,215.655,172.031,172.978
0.192,21.520,1.955,1.955,215.639,172.042,173.002
0.193,21.555,1.945,1.945,215.616,172.057,173.024
0.194,21.599,1.935,1.935,215.583,172.076,173.046
0.195,21.654,1.926,1.926,215.539,172.100,173.069
0.196,21.726,1.918,1.918,215.480,172.130,173.096
0.197,21.816,1.911,1.911,215.404,172.167,173.128
0.199,21.928,1.906,1.906,215.309,172.211,173.167
0.200,22.061,1.904,1.904,215.195,172.262,173.214
0.201,22.210,1.905,1.905,215.067,172.315,173.268
0.202,22.369,1.910,1.910,214.930,172.368,173.331
0.203,22.535,1.920,1.920,214.789,172.416,173.402
0.204,22.702,1.933,1.933,214.648,172.457,173.481
0.205,22.867,1.950,1.950,214.511,172.486,173.570
0.206,23.028,1.970,1.970,214.384,172.501,173.667
0.207,23.184,1.991,1.991,214.270,172.498,173.774
0.208,23.336,2.013,2.013,214.175,172.473,173.890
0.209,23.490,2.035,2.035,214.102,172.423,174.015
0.210,23.650,2.057,2.057,214.050,172.351,174.149
0.211,23.820,2.077,2.077,214.019,172.261,174.290
0.212,24.000,2.096,2.096,214.003,172.157,174.435
0.213,24.186,2.111,2.111,214.001,172.044,174.584
0.214,24.377,2.125,2.125,214.009,171.926,174.733
0.215,24.569,2.136,2.136,214.025,171.807,174.883
0.217,24.757,2.146,2.146,214.046,171.693,175.030
0.218,24.937,2.155,2.155,214.069,171.586,175.174
0.219,25.105,2.163,2.163,214.092,171.493,175.312
0.220,25.258,2.171,2.171,214.111,171.415,175.443
0.221,25.396,2.179,2.179,214.127,171.354,175.565
0.222,25.520,2.187,2.187,214.140,171.307,175.679
0.223,25.629,2.196,2.196,214.151,171.272,175.782
0.224,25.725,2.206,2.206,214.160,171.247,175.874
0.225,25.808,2.217,2.217,214.168,171.231,175.955
0.226,25.876,2.227,2.227,214.175,171.222,176.022
0.227,25.931,2.238,2.238,214.182,171.218,176.076
0.228,25.971,2.248,2.248,214.188,171.217,176.116
0.229,25.996,2.257,2.257,214.195,171.217,176.140
0.230,26.008,2.266,2.266,214.203,171.218,176.149
0.231,26.016,2.273,2.273,214.211,171.218,176.147
0.232,26.026,2.278,2.278,214.217,171.217,176.140
0.234,26.035,2.282,2.282,214.220,171.215,176.131
0.235,26.041,2.286,2.286,214.219,171.211,176.127
0.236,26.051,2.291,2.291,214.212,171.204,176.130
0.237,26.075,2.299,2.299,214.199,171.195,176.148
0.238,26.118,2.310,2.310,214.178,171.183,176.183
0.239,26.186,2.327,2.327,214.147,171.168,176.242
0.240,26.284,2.350,2.350,214.107,171.148,176.329
0.241,26.412,2.381,2.381,214.056,171.125,176.444
0.242,26.566,2.421,2.421,213.997,171.098,176.584
0.243,26.740,2.472,2.472,213.932,171.067,176.742
0.244,26.927,2.532,2.532,213.864,171.033,176.913
0.245,27.121,2.600,2.600,213.796,170.996,177.091
0.246,27.317,2.674,2.674,213.729,170.956,177.271
0.247,27.508,2.751,2.751,213.667,170.914,177.447
0.248,27.689,2.830,2.830,213.611,170.869,177.613
0.249,27.854,2.908,2.908,213.564,170.823,177.765
0.251,27.998,2.983,2.983,213.529,170.775,177.895
0.252,28.120,3.053,3.053,213.506,170.726,178.005
0.253,28.224,3.116,3.116,213.494,170.676,178.095
0.254,28.314,3.171,3.171,213.492,170.627,178.171
0.255,28.394,3.218,3.218,213.498,170.579,178.234
0.256,28.468,3.257,3.257,213.511,170.532,178.289
0.257,28.537,3.289,3.289,213.531,170.487,178.338
0.258,28.605,3.315,3.315,213.556,170.445,178.385
0.259,28.673,3.336,3.336,213.584,170.406,178.433
0.260,28.743,3.351,3.351,213.615,170.372,178.486
0.261,28.817,3.363,3.363,213.647,170.342,178.546
0.262,28.895,3.371,3.371,213.680,170.317,178.612
0.263,28.975,3.375,3.375,213.713,170.297,178.682
0.264,29.054,3.378,3.378,213.746,170.281,178.753
0.265,29.130,3.378,3.378,213.778,170.269,178.820
0.266,29.201,3.376,3.376,213.810,170.261,178.882
0.268,29.262,3.373,3.373,213.840,170.257,178.936
0.269,29.312,3.368,3.368,213.869,170.255,178.977
0.270,29.349,3.362,3.362,213.896,170.257,179.003
0.271,29.375,3.355,3.355,213.920,170.261,179.011
0.272,29.401,3.347,3.347,213.941,170.268,178.999
0.273,29.434,3.339,3.339,213.959,170.276,178.972
0.274,29.473,3.332,3.332,213.973,170.284,178.938
0.275,29.510,3.325,3.325,213.983,170.292,178.903
0.276,29.539,3.320,3.320,213.987,170.299,178.875
0.277,29.553,3.317,3.317,213.986,170.302,178.861
0.278,29.564,3.318,3.318,213.978,170.302,178.869
0.279,29.605,3.322,3.322,213.964,170.298,178.907
0.280,29.683,3.332,3.332,213.941,170.287,178.981
0.281,29.806,3.347,3.347,213.911,170.270,179.099
0.282,29.978,3.369,3.369,213.872,170.246,179.265
0.283,30.191,3.398,3.398,213.827,170.215,179.471
0.285,30.435,3.433,3.433,213.777,170.180,179.708
0.286,30.700,3.474,3.474,213.726,170.142,179.964
0.287,30.975,3.518,3.518,213.674,170.103,180.231
0.288,31.249,3.563,3.563,213.624,170.063,180.498
0.289,31.514,3.608,3.608,213.579,170.025,180.756
0.290,31.757,3.651,3.651,213.540,169.990,180.994
0.291,31.970,3.690,3.690,213.510,169.959,181.202
0.292,32.141,3.724,3.724,213.491,169.935,181.371
0.293,32.266,3.751,3.751,213.483,169.917,181.494
0.294,32.350,3.769,3.769,213.486,169.906,181.577
0.295,32.400,3.780,3.780,213.498,169.898,181.625
0.296,32.427,3.784,3.784,213.517,169.895,181.643
0.297,32.453,3.784,3.784,213.542,169.894,181.637
0.298,32.492,3.779,3.779,213.571,169.894,181.611
0.299,32.543,3.772,3.772,213.604,169.894,181.571
0.300,32.602,3.763,3.763,213.637,169.893,181.522
0.301,32.664,3.754,3.754,213.671,169.890,181.470
0.303,32.724,3.745,3.745,213.703,169.884,181.420
0.304,32.778,3.739,3.739,213.732,169.874,181.375
0.305,32.826,3.735,3.735,213.760,169.863,181.338
0.306,32.867,3.733,3.733,213.788,169.850,181.310
0.307,32.901,3.733,3.733,213.815,169.838,181.294
0.308,32.932,3.734,3.734,213.843,169.827,181.290
0.309,32.964,3.736,3.736,213.872,169.819,181.301
0.310,33.006,3.739,3.739,213.904,169.815,181.328
0.311,33.063,3.741,3.741,213.938,169.816,181.374
0.312,33.139,3.743,3.743,213.976,169.824,181.440
0.313,33.238,3.744,3.744,214.018,169.840,181.527
0.314,33.358,3.744,3.744,214.065,169.862,181.635
0.315,33.496,3.744,3.744,214.117,169.892,181.760
0.316,33.648,3.743,3.743,214.174,169.926,181.897
0.317,33.812,3.744,3.744,214.236,169.965,182.044
0.318,33.984,3.745,3.745,214.302,170.007,182.197
0.320,34.161,3.748,3.748,214.374,170.051,182.352
0.321,34.338,3.754,3.754,214.451,170.096,182.506
0.322,34.514,3.762,3.762,214.534,170.141,182.654
0.323,34.685,3.774,3.774,214.622,170.184,182.794
0.324,34.849,3.790,3.790,214.715,170.225,182.922
0.325,35.005,3.810,3.810,214.812,170.264,183.038
0.326,35.152,3.833,3.833,214.910,170.300,183.143
0.327,35.291,3.857,3.857,215.006,170.334,183.236
0.328,35.419,3.883,3.883,215.099,170.364,183.320
0.329,35.537,3.909,3.909,215.185,170.392,183.395
0.330,35.642,3.933,3.933,215.262,170.417,183.461
0.331,35.733,3.956,3.956,215.328,170.439,183.520
0.332,35.809,3.976,3.976,215.381,170.458,183.572
0.333,35.870,3.992,3.992,215.417,170.473,183.618
0.334,35.917,4.004,4.004,215.436,170.486,183.660
0.335,35.957,4.012,4.012,215.441,170.497,183.697
0.337,35.993,4.016,4.016,215.436,170.508,183.732
0.338,36.031,4.019,4.019,215.425,170.519,183.765
0.339,36.069,4.020,4.020,215.413,170.533,183.800
0.340,36.110,4.020,4.020,215.403,170.550,183.835
0.341,36.154,4.021,4.021,215.401,170.572,183.874
0.342,36.207,4.022,4.022,215.411,170.600,183.917
0.343,36.272,4.026,4.026,215.437,170.635,183.966
0.344,36.357,4.032,4.032,215.483,170.679,184.022
0.345,36.464,4.042,4.042,215.551,170.732,184.085
0.346,36.589,4.053,4.053,215.637,170.793,184.153
0.347,36.728,4.066,4.066,215.736,170.857,184.224
0.348,36.874,4.080,4.080,215.844,170.925,184.296
0.349,37.022,4.093,4.093,215.956,170.992,184.365
0.350,37.166,4.107,4.107,216.068,171.057,184.430
0.351,37.300,4.118,4.118,216.173,171.117,184.487
0.352,37.419,4.128,4.128,216.269,171.170,184.534
0.354,37.517,4.135,4.135,216.349,171.214,184.570
0.355,37.588,4.139,4.139,216.409,171.246,184.590
0.356,37.633,4.140,4.140,216.448,171.266,184.597
0.357,37.658,4.140,4.140,216.471,171.277,184.593
0.358,37.673,4.138,4.138,216.481,171.282,184.583
0.359,37.685,4.138,4.138,216.482,171.283,184.571
0.360,37.694,4.138,4.138,216.479,171.283,184.562
0.361,37.698,4.141,4.141,216.476,171.285,184.561
0.362,37.710,4.146,4.146,216.478,171.292,184.571
0.363,37.741,4.156,4.156,216.488,171.307,184.596
0.364,37.799,4.171,4.171,216.511,171.333,184.642
0.365,37.888,4.190,4.190,216.551,171.372,184.712
0.366,38.010,4.214,4.214,216.608,171.424,184.805
0.367,38.156,4.241,4.241,216.679,171.487,184.917
0.368,38.320,4.270,4.270,216.760,171.557,185.042
0.369,38.497,4.300,4.300,216.849,171.632,185.174
0.370,38.678,4.330,4.330,216.943,171.709,185.309
0.372,38.858,4.359,4.359,217.037,171.785,185.442
0.373,39.029,4.387,4.387,217.128,171.858,185.566
0.374,39.184,4.411,4.411,217.215,171.924,185.678
0.375,39.318,4.432,4.432,217.292,171.980,185.772
0.376,39.425,4.449,4.449,217.358,172.025,185.843
0.377,39.504,4.462,4.462,217.411,172.058,185.891
0.378,39.561,4.473,4.473,217.454,172.081,185.920
0.379,39.600,4.481,4.481,217.488,172.095,185.933
0.380,39.626,4.486,4.486,217.513,172.102,185.933
0.381,39.646,4.490,4.490,217.531,172.102,185.923
0.382,39.668,4.491,4.491,217.544,172.099,185.907
0.383,39.690,4.491,4.491,217.551,172.092,185.886
0.384,39.713,4.490,4.490,217.556,172.083,185.865
0.385,39.734,4.488,4.488,217.558,172.074,185.847
0.386,39.749,4.485,4.485,217.559,172.067,185.834
0.387,39.759,4.481,4.481,217.560,172.060,185.827
0.389,39.764,4.477,4.477,217.562,172.055,185.826
0.390,39.772,4.472,4.472,217.565,172.051,185.832
0.391,39.786,4.467,4.467,217.570,172.049,185.845
0.392,39.808,4.461,4.461,217.578,172.048,185.865
0.393,39.838,4.455,4.455,217.589,172.048,185.893
0.394,39.876,4.449,4.449,217.605,172.049,185.928
0.395,39.925,4.442,4.442,217.626,172.052,185.972
0.396,39.983,4.436,4.436,217.653,172.056,186.023
0.397,40.051,4.429,4.429,217.686,172.061,186.083
0.398,40.127,4.423,4.423,217.724,172.068,186.148
0.399,40.207,4.417,4.417,217.765,172.075,186.217
0.400,40.289,4.410,4.410,217.807,172.082,186.287
0.401,40.371,4.404,4.404,217.848,172.089,186.357
0.402,40.448,4.398,4.398,217.887,172.096,186.424
0.403,40.519,4.392,4.392,217.922,172.102,186.485
0.404,40.580,4.386,4.386,217.951,172.107,186.539
0.406,40.630,4.381,4.381,217.972,172.111,186.583
0.407,40.664,4.375,4.375,217.985,172.113,186.615
0.408,40.684,4.369,4.369,217.988,172.114,186.635
0.409,40.694,4.363,4.363,217.985,172.113,186.644
0.410,40.702,4.356,4.356,217.978,172.112,186.647
0.411,40.709,4.348,4.348,217.971,172.111,186.646
0.412,40.714,4.339,4.339,217.966,172.110,186.644
0.413,40.715,4.328,4.328,217.967,172.110,186.644
0.414,40.726,4.316,4.316,217.976,172.112,186.648
0.415,40.750,4.302,4.302,217.997,172.115,186.659
0.416,40.792,4.287,4.287,218.033,172.122,186.681
0.417,40.857,4.270,4.270,218.086,172.131,186.717
0.418,40.944,4.252,4.252,218.157,172.143,186.766
0.419,41.055,4.232,4.232,218.246,172.157,186.830
0.420,41.186,4.212,4.212,218.351,172.171,186.908
0.421,41.337,4.190,4.190,218.470,172.185,187.000
0.423,41.507,4.168,4.168,218.603,172.198,187.104
0.424,41.694,4.146,4.146,218.748,172.207,187.222
0.425,41.898,4.123,4.123,218.904,172.213,187.353
0.426,42.117,4.100,4.100,219.071,172.215,187.496
0.427,42.351,4.077,4.077,219.246,172.210,187.652
0.428,42.599,4.056,4.056,219.428,172.198,187.819
0.429,42.856,4.035,4.035,219.615,172.180,187.995
0.430,43.119,4.016,4.016,219.804,172.157,188.176
0.431,43.382,3.998,3.998,219.990,172.129,188.360
0.432,43.641,3.984,3.984,220.172,172.099,188.541
0.433,43.890,3.971,3.971,220.346,172.068,188.717
