"T","Distance","Radius","FreeRadius","X","Y","Z"
0.000,0.000,2.562,2.562,75.365,-51.121,-3.384
0.001,0.277,2.716,2.716,75.205,-51.207,-3.594
0.003,0.551,2.868,2.868,75.047,-51.290,-3.801
0.004,0.819,3.018,3.018,74.892,-51.369,-4.004
0.006,1.077,3.162,3.162,74.742,-51.443,-4.202
0.007,1.323,3.301,3.301,74.599,-51.508,-4.391
0.009,1.553,3.432,3.432,74.465,-51.564,-4.569
0.010,1.766,3.554,3.554,74.341,-51.607,-4.736
0.012,1.957,3.665,3.665,74.229,-51.637,-4.888
0.013,2.125,3.767,3.767,74.130,-51.650,-5.024
0.015,2.268,3.860,3.860,74.047,-51.645,-5.141
0.016,2.388,3.945,3.945,73.981,-51.621,-5.238
0.018,2.490,4.022,4.022,73.931,-51.580,-5.316
0.019,2.581,4.092,4.092,73.895,-51.525,-5.379
0.021,2.666,4.157,4.157,73.872,-51.462,-5.431
0.022,2.747,4.215,4.215,73.858,-51.395,-5.475
0.024,2.825,4.269,4.269,73.852,-51.328,-5.514
0.025,2.898,4.318,4.318,73.853,-51.266,-5.553
0.027,2.965,4.363,4.363,73.858,-51.213,-5.594
0.028,3.027,4.404,4.404,73.864,-51.174,-5.642
0.029,3.088,4.441,4.441,73.870,-51.154,-5.699
0.031,3.159,4.476,4.476,73.875,-51.155,-5.770
0.032,3.248,4.508,4.508,73.876,-51.180,-5.855
0.034,3.355,4.539,4.539,73.875,-51.226,-5.952
0.035,3.479,4.570,4.570,73.871,-51.288,-6.059
0.037,3.616,4.602,4.602,73.865,-51.364,-6.173
0.038,3.762,4.636,4.636,73.858,-51.450,-6.291
0.040,3.914,4.673,4.673,73.849,-51.543,-6.411
0.041,4.068,4.714,4.714,73.840,-51.639,-6.531
0.043,4.220,4.759,4.759,73.829,-51.735,-6.648
0.044,4.366,4.807,4.807,73.819,-51.828,-6.760
0.046,4.501,4.855,4.855,73.808,-51.914,-6.864
0.047,4.624,4.903,4.903,73.798,-51.991,-6.959
0.049,4.734,4.949,4.949,73.789,-52.059,-7.045
0.050,4.832,4.991,4.991,73.781,-52.119,-7.123
0.052,4.921,5.028,5.028,73.774,-52.173,-7.193
0.053,5.001,5.061,5.061,73.769,-52.221,-7.256
0.054,5.073,5.090,5.090,73.766,-52.264,-7.314
0.056,5.139,5.117,5.117,73.765,-52.304,-7.367
0.057,5.200,5.142,5.142,73.767,-52.340,-7.415
0.059,5.257,5.167,5.167,73.772,-52.375,-7.460
0.060,5.312,5.192,5.192,73.780,-52.409,-7.503
0.062,5.365,5.219,5.219,73.791,-52.443,-7.543
0.063,5.419,5.247,5.247,73.805,-52.476,-7.582
0.065,5.471,5.275,5.275,73.821,-52.509,-7.620
0.066,5.523,5.302,5.302,73.836,-52.540,-7.658
0.068,5.573,5.327,5.327,73.850,-52.570,-7.696
0.069,5.622,5.349,5.349,73.862,-52.596,-7.735
0.071,5.669,5.366,5.366,73.870,-52.620,-7.775
0.072,5.716,5.379,5.379,73.874,-52.640,-7.817
0.074,5.763,5.387,5.387,73.871,-52.657,-7.861
0.075,5.813,5.390,5.390,73.861,-52.668,-7.909
0.077,5.867,5.388,5.388,73.842,-52.674,-7.959
0.078,5.927,5.381,5.381,73.815,-52.675,-8.013
0.080,5.993,5.370,5.370,73.781,-52.671,-8.070
0.081,6.065,5.355,5.355,73.741,-52.663,-8.129
0.082,6.141,5.335,5.335,73.696,-52.653,-8.189
0.084,6.221,5.313,5.313,73.648,-52.639,-8.251
0.085,6.303,5.288,5.288,73.597,-52.624,-8.313
0.087,6.385,5.264,5.264,73.544,-52.607,-8.375
0.088,6.468,5.239,5.239,73.492,-52.590,-8.436
0.090,6.548,5.216,5.216,73.441,-52.573,-8.496
0.091,6.626,5.196,5.196,73.392,-52.556,-8.554
0.093,6.700,5.180,5.180,73.346,-52.541,-8.610
0.094,6.770,5.166,5.166,73.303,-52.528,-8.663
0.096,6.836,5.154,5.154,73.262,-52.517,-8.714
0.097,6.899,5.144,5.144,73.224,-52.509,-8.763
0.099,6.958,5.135,5.135,73.188,-52.505,-8.810
0.100,7.015,5.126,5.126,73.153,-52.505,-8.855
0.102,7.069,5.116,5.116,73.120,-52.510,-8.898
0.103,7.122,5.107,5.107,73.088,-52.520,-8.938
0.105,7.174,5.096,5.096,73.057,-52.536,-8.977
0.106,7.227,5.086,5.086,73.026,-52.559,-9.014
0.108,7.282,5.075,5.075,72.996,-52.588,-9.049
0.109,7.341,5.064,5.064,72.965,-52.624,-9.083
0.110,7.404,5.053,5.053,72.932,-52.666,-9.117
0.112,7.472,5.042,5.042,72.896,-52.713,-9.151
0.113,7.545,5.031,5.031,72.856,-52.764,-9.186
0.115,7.625,5.018,5.018,72.811,-52.819,-9.223
0.116,7.712,5.003,5.003,72.760,-52.876,-9.262
0.118,7.806,4.984,4.984,72.701,-52.936,-9.305
0.119,7.908,4.961,4.961,72.635,-52.997,-9.353
0.121,8.019,4.932,4.932,72.559,-53.059,-9.405
0.122,8.139,4.896,4.896,72.473,-53.121,-9.462
0.124,8.270,4.854,4.854,72.377,-53.183,-9.525
0.125,8.408,4.809,4.809,72.273,-53.247,-9.590
0.127,8.554,4.762,4.762,72.161,-53.314,-9.656
0.128,8.706,4.716,4.716,72.044,-53.383,-9.722
0.130,8.861,4.673,4.673,71.922,-53.457,-9.784
0.131,9.021,4.634,4.634,71.796,-53.537,-9.842
0.133,9.183,4.602,4.602,71.669,-53.622,-9.894
0.134,9.347,4.577,4.577,71.541,-53.715,-9.938
0.135,9.513,4.556,4.556,71.413,-53.817,-9.972
0.137,9.682,4.539,4.539,71.288,-53.927,-9.994
0.138,9.853,4.525,4.525,71.164,-54.046,-10.006
0.140,10.029,4.512,4.512,71.041,-54.171,-10.012
0.141,10.209,4.498,4.498,70.916,-54.301,-10.019
0.143,10.393,4.484,4.484,70.789,-54.432,-10.033
0.144,10.581,4.470,4.470,70.656,-54.563,-10.057
0.146,10.775,4.456,4.456,70.517,-54.690,-10.099
0.147,10.977,4.444,4.444,70.369,-54.813,-10.164
0.149,11.193,4.435,4.435,70.211,-54.927,-10.257
0.150,11.429,4.429,4.429,70.042,-55.032,-10.384
0.152,11.693,4.428,4.428,69.859,-55.124,-10.550
0.153,11.989,4.432,4.432,69.663,-55.203,-10.758
0.155,12.315,4.444,4.444,69.456,-55.268,-11.001
0.156,12.661,4.465,4.465,69.244,-55.323,-11.269
0.158,13.020,4.496,4.496,69.030,-55.368,-11.554
0.159,13.383,4.540,4.540,68.820,-55.404,-11.848
0.161,13.742,4.599,4.599,68.617,-55.435,-12.142
0.162,14.085,4.673,4.673,68.427,-55.460,-12.427
0.163,14.405,4.763,4.763,68.252,-55.481,-12.694
0.165,14.691,4.861,4.861,68.099,-55.501,-12.935
0.166,14.935,4.961,4.961,67.970,-55.520,-13.141
0.168,15.127,5.057,5.057,67.871,-55.540,-13.304
0.169,15.271,5.141,5.141,67.799,-55.561,-13.426
0.171,15.371,5.207,5.207,67.751,-55.581,-13.512
0.172,15.434,5.248,5.248,67.723,-55.600,-13.566
0.174,15.466,5.263,5.263,67.712,-55.616,-13.591
0.175,15.479,5.258,5.258,67.714,-55.628,-13.594
0.177,15.501,5.238,5.239,67.726,-55.636,-13.579
0.178,15.535,5.211,5.211,67.745,-55.639,-13.550
0.180,15.579,5.182,5.182,67.766,-55.635,-13.511
0.181,15.628,5.157,5.157,67.786,-55.623,-13.468
0.183,15.679,5.143,5.143,67.802,-55.603,-13.425
0.184,15.729,5.140,5.140,67.813,-55.576,-13.385
0.186,15.775,5.145,5.144,67.818,-55.546,-13.349
0.187,15.816,5.155,5.154,67.818,-55.517,-13.321
0.189,15.848,5.166,5.164,67.815,-55.493,-13.301
0.190,15.867,5.173,5.173,67.807,-55.477,-13.291
0.191,15.879,5.175,5.175,67.796,-55.474,-13.295
0.193,15.906,5.168,5.168,67.782,-55.488,-13.312
0.194,15.957,5.150,5.152,67.765,-55.523,-13.346
0.196,16.037,5.126,5.129,67.746,-55.582,-13.398
0.197,16.152,5.095,5.099,67.726,-55.669,-13.470
0.199,16.302,5.061,5.065,67.704,-55.786,-13.562
0.200,16.481,5.025,5.028,67.681,-55.926,-13.670
0.202,16.682,4.989,4.989,67.657,-56.085,-13.791
0.203,16.898,4.954,4.951,67.633,-56.256,-13.920
0.205,17.122,4.922,4.914,67.607,-56.433,-14.054
0.206,17.347,4.892,4.880,67.581,-56.611,-14.189
0.208,17.565,4.865,4.849,67.555,-56.783,-14.321
0.209,17.770,4.839,4.824,67.528,-56.945,-14.445
0.211,17.956,4.816,4.805,67.501,-57.089,-14.558
0.212,18.114,4.794,4.794,67.474,-57.210,-14.656
0.214,18.240,4.775,4.791,67.447,-57.304,-14.736
0.215,18.336,4.758,4.795,67.421,-57.372,-14.798
0.216,18.405,4.744,4.805,67.396,-57.417,-14.844
0.218,18.452,4.735,4.820,67.373,-57.443,-14.877
0.219,18.482,4.729,4.836,67.353,-57.451,-14.897
0.221,18.503,4.729,4.854,67.335,-57.445,-14.907
0.222,18.524,4.734,4.871,67.322,-57.429,-14.907
0.224,18.550,4.744,4.886,67.313,-57.405,-14.901
0.225,18.582,4.760,4.898,67.308,-57.377,-14.889
0.227,18.615,4.778,4.909,67.310,-57.347,-14.874
0.228,18.650,4.798,4.917,67.317,-57.318,-14.857
0.230,18.682,4.819,4.922,67.328,-57.292,-14.840
0.231,18.709,4.838,4.926,67.340,-57.272,-14.827
0.233,18.727,4.854,4.926,67.349,-57.258,-14.819
0.234,18.733,4.867,4.923,67.351,-57.253,-14.821
0.236,18.750,4.871,4.914,67.342,-57.257,-14.835
0.237,18.789,4.866,4.896,67.320,-57.272,-14.863
0.239,18.855,4.847,4.866,67.281,-57.300,-14.909
0.240,18.954,4.811,4.822,67.221,-57.342,-14.975
0.242,19.090,4.757,4.760,67.136,-57.400,-15.064
0.243,19.267,4.680,4.678,67.024,-57.475,-15.179
0.244,19.487,4.583,4.578,66.883,-57.568,-15.320
0.246,19.743,4.472,4.467,66.717,-57.678,-15.481
0.247,20.030,4.355,4.350,66.530,-57.803,-15.659
0.249,20.343,4.240,4.236,66.325,-57.942,-15.850
0.250,20.675,4.134,4.132,66.106,-58.094,-16.048
0.252,21.021,4.046,4.045,65.877,-58.258,-16.248
0.253,21.375,3.981,3.982,65.640,-58.432,-16.447
0.255,21.733,3.944,3.945,65.401,-58.615,-16.640
0.256,22.089,3.931,3.932,65.162,-58.806,-16.822
0.258,22.438,3.941,3.942,64.928,-59.004,-16.989
0.259,22.777,3.971,3.972,64.700,-59.207,-17.137
0.261,23.105,4.021,4.021,64.481,-59.413,-17.268
0.262,23.421,4.086,4.086,64.273,-59.620,-17.385
0.264,23.726,4.166,4.166,64.075,-59.826,-17.490
0.265,24.016,4.257,4.257,63.889,-60.028,-17.585
0.267,24.292,4.353,4.353,63.716,-60.224,-17.673
0.268,24.552,4.451,4.451,63.557,-60.413,-17.755
0.270,24.794,4.546,4.546,63.414,-60.591,-17.836
0.271,25.017,4.633,4.633,63.288,-60.756,-17.916
0.272,25.221,4.707,4.707,63.179,-60.908,-17.998
0.274,25.404,4.764,4.764,63.089,-61.042,-18.085
0.275,25.569,4.805,4.805,63.017,-61.160,-18.174
0.277,25.718,4.832,4.832,62.961,-61.263,-18.265
0.278,25.850,4.847,4.846,62.919,-61.351,-18.355
0.280,25.968,4.850,4.850,62.891,-61.426,-18.441
0.281,26.071,4.846,4.845,62.874,-61.489,-18.522
0.283,26.161,4.835,4.835,62.867,-61.540,-18.595
0.284,26.236,4.819,4.820,62.869,-61.581,-18.658
0.286,26.296,4.801,4.802,62.877,-61.613,-18.708
0.287,26.342,4.781,4.783,62.891,-61.636,-18.745
0.289,26.373,4.762,4.764,62.909,-61.652,-18.765
0.290,26.395,4.746,4.748,62.928,-61.662,-18.769
0.292,26.416,4.733,4.734,62.948,-61.667,-18.763
0.293,26.438,4.726,4.726,62.965,-61.668,-18.749
0.295,26.459,4.725,4.723,62.978,-61.667,-18.733
0.296,26.476,4.731,4.726,62.986,-61.663,-18.718
0.297,26.487,4.740,4.734,62.985,-61.660,-18.708
0.299,26.498,4.753,4.745,62.974,-61.657,-18.709
0.300,26.525,4.768,4.761,62.952,-61.656,-18.723
0.302,26.574,4.783,4.779,62.915,-61.658,-18.755
0.303,26.650,4.798,4.800,62.862,-61.665,-18.809
0.305,26.755,4.811,4.822,62.793,-61.676,-18.887
0.306,26.883,4.823,4.844,62.710,-61.691,-18.985
0.308,27.030,4.833,4.865,62.618,-61.709,-19.098
0.309,27.190,4.841,4.884,62.519,-61.728,-19.221
0.311,27.356,4.848,4.900,62.417,-61.749,-19.351
0.312,27.523,4.854,4.911,62.315,-61.771,-19.481
0.314,27.684,4.859,4.917,62.218,-61.791,-19.609
0.315,27.835,4.862,4.916,62.127,-61.809,-19.728
0.317,27.970,4.865,4.912,62.047,-61.825,-19.835
0.318,28.082,4.868,4.905,61.981,-61.837,-19.925
0.320,28.168,4.871,4.897,61.931,-61.845,-19.994
0.321,28.229,4.875,4.889,61.897,-61.850,-20.044
0.323,28.269,4.879,4.883,61.874,-61.853,-20.078
0.324,28.294,4.885,4.882,61.861,-61.857,-20.098
0.325,28.307,4.893,4.884,61.855,-61.863,-20.108
0.327,28.317,4.902,4.891,61.852,-61.872,-20.111
0.328,28.333,4.914,4.902,61.851,-61.887,-20.109
0.330,28.355,4.927,4.917,61.848,-61.910,-20.106
0.331,28.387,4.942,4.935,61.841,-61.941,-20.103
0.333,28.431,4.958,4.957,61.827,-61.982,-20.105
0.334,28.491,4.977,4.981,61.803,-62.036,-20.114
0.336,28.566,4.998,5.009,61.769,-62.101,-20.131
0.337,28.655,5.020,5.039,61.727,-62.175,-20.157
0.339,28.757,5.043,5.070,61.677,-62.257,-20.193
0.340,28.869,5.066,5.102,61.622,-62.344,-20.237
0.342,28.991,5.089,5.134,61.562,-62.434,-20.292
0.343,29.120,5.111,5.165,61.500,-62.526,-20.358
0.345,29.254,5.132,5.196,61.435,-62.616,-20.434
0.346,29.394,5.153,5.225,61.371,-62.704,-20.521
0.348,29.538,5.174,5.254,61.307,-62.787,-20.621
0.349,29.686,5.196,5.283,61.246,-62.863,-20.732
0.351,29.838,5.220,5.312,61.188,-62.930,-20.855
0.352,29.994,5.247,5.341,61.132,-62.991,-20.987
0.353,30.151,5.276,5.370,61.079,-63.044,-21.125
0.355,30.310,5.310,5.401,61.026,-63.091,-21.267
0.356,30.467,5.345,5.431,60.975,-63.131,-21.411
0.358,30.622,5.381,5.461,60.925,-63.167,-21.553
0.359,30.773,5.416,5.489,60.874,-63.197,-21.691
0.361,30.916,5.447,5.514,60.822,-63.222,-21.823
0.362,31.052,5.472,5.535,60.769,-63.244,-21.946
0.364,31.178,5.491,5.551,60.715,-63.262,-22.058
0.365,31.292,5.501,5.562,60.659,-63.277,-22.157
0.367,31.397,5.505,5.568,60.601,-63.289,-22.243
0.368,31.495,5.504,5.571,60.541,-63.301,-22.320
0.370,31.586,5.499,5.572,60.481,-63.312,-22.388
0.371,31.673,5.494,5.572,60.421,-63.323,-22.449
0.373,31.756,5.490,5.572,60.361,-63.334,-22.505
0.374,31.836,5.489,5.573,60.301,-63.348,-22.557
0.376,31.915,5.493,5.577,60.243,-63.364,-22.608
0.377,31.994,5.500,5.582,60.186,-63.384,-22.658
0.378,32.073,5.510,5.590,60.131,-63.407,-22.711
0.380,32.154,5.524,5.600,60.079,-63.436,-22.766
0.381,32.237,5.539,5.612,60.029,-63.468,-22.824
0.383,32.324,5.557,5.626,59.979,-63.504,-22.886
0.384,32.414,5.575,5.643,59.929,-63.543,-22.950
0.386,32.508,5.595,5.662,59.878,-63.584,-23.016
0.387,32.604,5.614,5.681,59.824,-63.625,-23.084
0.389,32.703,5.634,5.700,59.767,-63.667,-23.154
0.390,32.806,5.652,5.718,59.705,-63.707,-23.226
0.392,32.912,5.669,5.734,59.638,-63.746,-23.298
0.393,33.022,5.685,5.747,59.564,-63.782,-23.370
0.395,33.136,5.698,5.755,59.482,-63.815,-23.443
0.396,33.254,5.708,5.759,59.394,-63.845,-23.516
0.398,33.375,5.718,5.760,59.300,-63.873,-23.587
0.399,33.497,5.728,5.761,59.204,-63.900,-23.657
0.401,33.618,5.738,5.761,59.108,-63.929,-23.725
0.402,33.736,5.750,5.763,59.014,-63.960,-23.789
0.404,33.850,5.765,5.768,58.925,-63.995,-23.850
0.405,33.958,5.784,5.778,58.842,-64.035,-23.907
0.406,34.060,5.806,5.793,58.768,-64.082,-23.958
0.408,34.155,5.829,5.811,58.705,-64.137,-24.004
0.409,34.245,5.853,5.833,58.656,-64.201,-24.043
0.411,34.333,5.876,5.857,58.621,-64.276,-24.076
0.412,34.426,5.896,5.882,58.598,-64.361,-24.102
0.414,34.524,5.912,5.909,58.584,-64.456,-24.124
0.415,34.632,5.923,5.937,58.577,-64.562,-24.142
0.417,34.749,5.930,5.964,58.573,-64.678,-24.157
0.418,34.876,5.934,5.992,58.570,-64.804,-24.170
0.420,35.012,5.936,6.020,58.565,-64.940,-24.182
0.421,35.159,5.939,6.049,58.556,-65.086,-24.194
0.423,35.316,5.943,6.078,58.540,-65.241,-24.206
0.424,35.484,5.950,6.108,58.513,-65.407,-24.220
0.426,35.664,5.961,6.139,58.474,-65.582,-24.237
0.427,35.852,5.977,6.170,58.425,-65.763,-24.255
0.429,36.046,5.996,6.201,58.367,-65.947,-24.275
0.430,36.241,6.019,6.231,58.303,-66.130,-24.295
0.432,36.433,6.045,6.260,58.236,-66.309,-24.315
0.433,36.619,6.073,6.289,58.167,-66.480,-24.334
0.434,36.793,6.103,6.315,58.100,-66.639,-24.352
0.436,36.952,6.135,6.340,58.036,-66.784,-24.367
0.437,37.091,6.166,6.362,57.978,-66.910,-24.380
0.439,37.207,6.197,6.383,57.928,-67.014,-24.388
0.440,37.295,6.225,6.400,57.889,-67.093,-24.393
0.442,37.357,6.249,6.415,57.861,-67.148,-24.393
0.443,37.397,6.269,6.427,57.841,-67.182,-24.391
0.445,37.419,6.282,6.436,57.829,-67.201,-24.387
0.446,37.429,6.289,6.442,57.822,-67.207,-24.382
0.448,37.435,6.291,6.445,57.818,-67.204,-24.378
0.449,37.443,6.289,6.446,57.817,-67.197,-24.375
0.451,37.450,6.285,6.445,57.817,-67.190,-24.375
0.452,37.456,6.280,6.442,57.815,-67.186,-24.379
0.454,37.466,6.276,6.438,57.810,-67.190,-24.388
0.455,37.489,6.275,6.433,57.801,-67.205,-24.402
0.457,37.527,6.277,6.427,57.787,-67.233,-24.423
0.458,37.580,6.281,6.420,57.767,-67.274,-24.450
0.459,37.644,6.286,6.412,57.743,-67.325,-24.482
0.461,37.720,6.290,6.402,57.716,-67.385,-24.518
0.462,37.805,6.293,6.391,57.684,-67.453,-24.558
0.464,37.898,6.294,6.377,57.649,-67.528,-24.600
0.465,37.997,6.291,6.360,57.612,-67.608,-24.645
0.467,38.100,6.285,6.341,57.572,-67.691,-24.691
0.468,38.206,6.277,6.322,57.531,-67.777,-24.738
0.470,38.313,6.269,6.304,57.488,-67.864,-24.785
0.471,38.421,6.263,6.288,57.445,-67.950,-24.831
0.473,38.528,6.261,6.275,57.401,-68.038,-24.877
0.474,38.636,6.263,6.267,57.358,-68.126,-24.921
0.476,38.746,6.272,6.265,57.316,-68.217,-24.964
0.477,38.856,6.288,6.270,57.275,-68.312,-25.005
0.479,38.969,6.307,6.281,57.238,-68.411,-25.044
0.480,39.085,6.328,6.298,57.203,-68.515,-25.081
0.482,39.205,6.349,6.320,57.172,-68.626,-25.115
0.483,39.330,6.368,6.347,57.145,-68.744,-25.147
0.485,39.461,6.383,6.379,57.123,-68.870,-25.176
0.486,39.600,6.392,6.414,57.107,-69.005,-25.202
0.487,39.745,6.396,6.452,57.095,-69.147,-25.225
0.489,39.895,6.395,6.489,57.085,-69.296,-25.244
0.490,40.048,6.390,6.522,57.076,-69.449,-25.259
0.492,40.204,6.384,6.548,57.064,-69.603,-25.271
0.493,40.360,6.377,6.563,57.049,-69.759,-25.278
0.495,40.515,6.370,6.566,57.028,-69.912,-25.281
0.496,40.668,6.364,6.554,56.999,-70.063,-25.280
0.498,40.819,6.359,6.529,56.961,-70.208,-25.274
0.499,40.966,6.354,6.495,56.910,-70.346,-25.263
0.501,41.111,6.346,6.455,56.846,-70.474,-25.247
0.502,41.255,6.335,6.413,56.768,-70.594,-25.227
0.504,41.398,6.320,6.372,56.679,-70.704,-25.203
0.505,41.541,6.299,6.335,56.582,-70.805,-25.177
0.507,41.683,6.272,6.307,56.479,-70.899,-25.149
0.508,41.823,6.239,6.284,56.373,-70.985,-25.120
0.510,41.959,6.203,6.267,56.266,-71.063,-25.092
0.511,42.089,6.165,6.252,56.160,-71.136,-25.065
0.513,42.212,6.125,6.240,56.060,-71.202,-25.040
0.514,42.326,6.087,6.228,55.966,-71.263,-25.019
0.515,42.428,6.051,6.215,55.882,-71.319,-25.002
0.517,42.519,6.017,6.199,55.809,-71.371,-24.990
0.518,42.604,5.986,6.181,55.742,-71.423,-24.984
0.520,42.688,5.954,6.158,55.678,-71.478,-24.984
0.521,42.777,5.922,6.130,55.612,-71.538,-24.991
0.523,42.878,5.887,6.097,55.541,-71.608,-25.004
0.524,42.995,5.848,6.058,55.461,-71.690,-25.026
0.526,43.134,5.804,6.012,55.367,-71.788,-25.056
0.527,43.301,5.755,5.960,55.255,-71.906,-25.094
0.529,43.500,5.704,5.905,55.121,-72.045,-25.142
0.530,43.736,5.656,5.851,54.962,-72.210,-25.200
0.532,44.014,5.613,5.799,54.774,-72.403,-25.267
0.533,44.325,5.579,5.755,54.563,-72.618,-25.343
0.535,44.659,5.558,5.720,54.334,-72.848,-25.424
0.536,45.006,5.553,5.698,54.097,-73.086,-25.509
0.538,45.355,5.564,5.688,53.857,-73.325,-25.595
0.539,45.697,5.585,5.689,53.621,-73.557,-25.681
0.541,46.020,5.613,5.694,53.397,-73.775,-25.763
0.542,46.314,5.642,5.702,53.192,-73.971,-25.840
0.543,46.570,5.669,5.709,53.013,-74.140,-25.909
0.545,46.776,5.688,5.710,52.866,-74.272,-25.968
0.546,46.923,5.695,5.703,52.759,-74.362,-26.015
0.548,47.015,5.691,5.688,52.691,-74.412,-26.050
0.549,47.062,5.677,5.667,52.655,-74.431,-26.073
0.551,47.079,5.658,5.645,52.644,-74.425,-26.085
0.552,47.101,5.637,5.624,52.653,-74.405,-26.088
0.554,47.136,5.616,5.607,52.676,-74.379,-26.083
0.555,47.177,5.599,5.597,52.705,-74.355,-26.069
0.557,47.215,5.589,5.597,52.736,-74.341,-26.049
0.558,47.251,5.586,5.607,52.760,-74.347,-26.024
0.560,47.298,5.590,5.623,52.773,-74.380,-25.994
0.561,47.375,5.599,5.645,52.768,-74.449,-25.960
0.563,47.492,5.614,5.670,52.742,-74.556,-25.923
0.564,47.643,5.633,5.696,52.699,-74.696,-25.884
0.566,47.822,5.656,5.720,52.641,-74.860,-25.844
0.567,48.021,5.682,5.742,52.573,-75.043,-25.804
0.568,48.233,5.710,5.760,52.498,-75.237,-25.764
0.570,48.449,5.738,5.776,52.419,-75.435,-25.726
0.571,48.663,5.765,5.791,52.339,-75.630,-25.691
0.573,48.865,5.790,5.803,52.263,-75.815,-25.658
0.574,49.050,5.811,5.815,52.194,-75.983,-25.630
0.576,49.207,5.826,5.826,52.135,-76.128,-25.607
0.577,49.333,5.835,5.837,52.089,-76.243,-25.589
0.579,49.429,5.839,5.847,52.054,-76.332,-25.577
0.580,49.498,5.839,5.857,52.030,-76.397,-25.569
0.582,49.545,5.836,5.865,52.016,-76.441,-25.565
0.583,49.573,5.832,5.871,52.009,-76.468,-25.564
0.585,49.586,5.827,5.875,52.008,-76.481,-25.566
0.586,49.592,5.824,5.877,52.013,-76.483,-25.570
0.588,49.603,5.824,5.875,52.021,-76.477,-25.576
0.589,49.619,5.825,5.872,52.031,-76.468,-25.582
0.591,49.635,5.828,5.867,52.042,-76.457,-25.588
0.592,49.650,5.832,5.861,52.052,-76.448,-25.595
0.594,49.662,5.836,5.854,52.061,-76.443,-25.600
0.595,49.672,5.841,5.848,52.069,-76.439,-25.605
0.596,49.678,5.846,5.843,52.075,-76.439,-25.609
0.598,49.683,5.851,5.840,52.078,-76.441,-25.611
0.599,49.688,5.855,5.838,52.079,-76.446,-25.613
0.601,49.695,5.858,5.838,52.077,-76.452,-25.613
0.602,49.705,5.858,5.839,52.072,-76.461,-25.612
0.604,49.719,5.857,5.842,52.063,-76.471,-25.610
0.605,49.737,5.854,5.847,52.051,-76.484,-25.605
0.607,49.760,5.847,5.854,52.034,-76.498,-25.599
0.608,49.789,5.837,5.862,52.011,-76.515,-25.592
0.610,49.827,5.824,5.868,51.980,-76.535,-25.586
0.611,49.878,5.807,5.871,51.936,-76.562,-25.581
0.613,49.946,5.787,5.868,51.878,-76.596,-25.580
0.614,50.034,5.764,5.858,51.802,-76.639,-25.585
0.616,50.145,5.737,5.837,51.705,-76.693,-25.596
