"T","Distance","Radius","FreeRadius","X","Y","Z"
0.000,0.000,2.103,2.103,233.573,215.260,208.317
0.001,0.127,2.178,2.178,233.556,215.291,208.438
0.003,0.252,2.252,2.252,233.538,215.321,208.559
0.004,0.376,2.324,2.324,233.522,215.350,208.678
0.005,0.495,2.394,2.394,233.507,215.378,208.793
0.006,0.610,2.459,2.459,233.493,215.403,208.904
0.008,0.720,2.521,2.521,233.481,215.427,209.010
0.009,0.822,2.577,2.577,233.471,215.448,209.110
0.010,0.916,2.627,2.627,233.464,215.465,209.202
0.012,1.001,2.670,2.670,233.460,215.479,209.286
0.013,1.075,2.707,2.707,233.460,215.489,209.360
0.014,1.139,2.739,2.739,233.463,215.494,209.423
0.015,1.192,2.767,2.767,233.470,215.493,209.475
0.017,1.233,2.791,2.791,233.482,215.488,209.515
0.018,1.267,2.813,2.813,233.499,215.478,209.543
0.019,1.297,2.834,2.834,233.520,215.466,209.560
0.021,1.327,2.853,2.853,233.545,215.454,209.570
0.022,1.359,2.873,2.873,233.575,215.442,209.572
0.023,1.395,2.891,2.891,233.610,215.433,209.568
0.024,1.434,2.907,2.907,233.648,215.429,209.561
0.026,1.478,2.922,2.922,233.691,215.432,209.551
0.027,1.527,2.933,2.933,233.737,215.442,209.540
0.028,1.583,2.941,2.941,233.788,215.462,209.529
0.030,1.647,2.944,2.944,233.843,215.494,209.520
0.031,1.722,2.942,2.942,233.902,215.540,209.514
0.032,1.809,2.936,2.936,233.965,215.600,209.514
0.033,1.908,2.927,2.927,234.031,215.674,209.518
0.035,2.020,2.917,2.917,234.101,215.761,209.527
0.036,2.141,2.907,2.907,234.175,215.857,209.541
0.037,2.272,2.900,2.900,234.251,215.960,209.559
0.039,2.408,2.896,2.896,234.331,216.069,209.580
0.040,2.550,2.897,2.897,234.414,216.181,209.606
0.041,2.695,2.906,2.906,234.500,216.294,209.634
0.042,2.841,2.922,2.922,234.589,216.406,209.665
0.044,2.987,2.946,2.946,234.681,216.514,209.699
0.045,3.131,2.975,2.975,234.775,216.617,209.735
0.046,3.272,3.010,3.010,234.871,216.712,209.773
0.048,3.408,3.050,3.050,234.969,216.798,209.813
0.049,3.540,3.094,3.094,235.070,216.873,209.854
0.050,3.668,3.143,3.143,235.172,216.938,209.897
0.051,3.794,3.194,3.194,235.276,216.994,209.941
0.053,3.919,3.248,3.248,235.381,217.042,209.986
0.054,4.042,3.302,3.302,235.487,217.082,210.033
0.055,4.164,3.355,3.355,235.595,217.115,210.082
0.057,4.285,3.406,3.406,235.702,217.141,210.132
0.058,4.407,3.453,3.453,235.811,217.161,210.183
0.059,4.529,3.496,3.496,235.919,217.176,210.236
0.060,4.650,3.531,3.531,236.028,217.186,210.290
0.062,4.772,3.560,3.560,236.136,217.193,210.346
0.063,4.894,3.582,3.582,236.244,217.196,210.403
0.064,5.016,3.599,3.599,236.351,217.197,210.461
0.066,5.136,3.614,3.614,236.455,217.197,210.520
0.067,5.254,3.628,3.628,236.557,217.198,210.580
0.068,5.369,3.643,3.643,236.654,217.200,210.641
0.069,5.479,3.661,3.661,236.747,217.206,210.701
0.071,5.585,3.684,3.684,236.833,217.217,210.761
0.072,5.686,3.712,3.712,236.912,217.235,210.821
0.073,5.781,3.745,3.745,236.983,217.260,210.880
0.075,5.873,3.780,3.780,237.045,217.294,210.937
0.076,5.961,3.817,3.817,237.097,217.339,210.994
0.077,6.050,3.853,3.853,237.138,217.396,211.049
0.079,6.143,3.886,3.886,237.166,217.467,211.101
0.080,6.243,3.915,3.915,237.182,217.551,211.152
0.081,6.351,3.938,3.938,237.187,217.647,211.202
0.082,6.469,3.954,3.954,237.182,217.754,211.252
0.084,6.594,3.963,3.963,237.169,217.868,211.303
0.085,6.727,3.968,3.968,237.148,217.988,211.355
0.086,6.866,3.969,3.969,237.122,218.113,211.410
0.088,7.009,3.967,3.967,237.092,218.240,211.469
0.089,7.155,3.963,3.963,237.060,218.367,211.532
0.090,7.301,3.959,3.959,237.025,218.492,211.600
0.091,7.448,3.955,3.955,236.991,218.614,211.674
0.093,7.594,3.953,3.953,236.958,218.731,211.756
0.094,7.738,3.951,3.951,236.928,218.839,211.845
0.095,7.880,3.950,3.950,236.902,218.939,211.943
0.097,8.023,3.948,3.948,236.878,219.032,212.049
0.098,8.166,3.946,3.946,236.857,219.117,212.162
0.099,8.311,3.942,3.942,236.838,219.197,212.281
0.100,8.458,3.936,3.936,236.820,219.273,212.407
0.102,8.608,3.928,3.928,236.802,219.345,212.537
0.103,8.761,3.918,3.918,236.783,219.416,212.671
0.104,8.917,3.909,3.909,236.764,219.486,212.809
0.106,9.075,3.900,3.900,236.743,219.556,212.949
0.107,9.236,3.894,3.894,236.720,219.627,213.092
0.108,9.400,3.893,3.893,236.693,219.701,213.235
0.109,9.567,3.897,3.897,236.663,219.779,213.380
0.111,9.736,3.909,3.909,236.628,219.862,213.524
0.112,9.907,3.930,3.930,236.590,219.948,213.666
0.113,10.077,3.958,3.958,236.549,220.036,213.806
0.115,10.245,3.992,3.992,236.507,220.124,213.941
0.116,10.408,4.030,4.030,236.463,220.212,214.072
0.117,10.564,4.069,4.069,236.419,220.297,214.195
0.118,10.712,4.107,4.107,236.376,220.378,214.311
0.120,10.849,4.142,4.142,236.334,220.454,214.418
0.121,10.974,4.171,4.171,236.294,220.523,214.514
0.122,11.084,4.194,4.194,236.258,220.583,214.598
0.124,11.177,4.209,4.209,236.226,220.634,214.670
0.125,11.252,4.220,4.220,236.198,220.674,214.727
0.126,11.306,4.226,4.226,236.177,220.701,214.769
0.127,11.343,4.229,4.229,236.160,220.717,214.797
0.129,11.364,4.231,4.231,236.149,220.723,214.814
0.130,11.375,4.232,4.232,236.142,220.722,214.822
0.131,11.383,4.236,4.236,236.138,220.716,214.824
0.133,11.393,4.241,4.241,236.138,220.706,214.821
0.134,11.406,4.248,4.248,236.140,220.694,214.817
0.135,11.419,4.257,4.257,236.144,220.682,214.813
0.136,11.430,4.266,4.266,236.149,220.672,214.813
0.138,11.440,4.275,4.275,236.155,220.666,214.818
0.139,11.454,4.282,4.282,236.162,220.666,214.831
0.140,11.479,4.288,4.288,236.168,220.674,214.854
0.142,11.519,4.290,4.290,236.173,220.691,214.889
0.143,11.575,4.290,4.290,236.178,220.718,214.938
0.144,11.645,4.287,4.287,236.183,220.754,214.999
0.145,11.731,4.284,4.284,236.189,220.798,215.072
0.147,11.830,4.280,4.280,236.197,220.849,215.156
0.148,11.942,4.278,4.278,236.207,220.906,215.252
0.149,12.067,4.278,4.278,236.220,220.969,215.359
0.151,12.204,4.281,4.281,236.237,221.037,215.477
0.152,12.352,4.289,4.289,236.258,221.109,215.604
0.153,12.510,4.303,4.303,236.285,221.184,215.741
0.154,12.679,4.321,4.321,236.318,221.262,215.888
0.156,12.858,4.345,4.345,236.357,221.341,216.043
0.157,13.046,4.373,4.373,236.404,221.422,216.207
0.158,13.243,4.406,4.406,236.457,221.502,216.378
0.160,13.446,4.444,4.444,236.515,221.582,216.555
0.161,13.653,4.487,4.486,236.577,221.660,216.737
0.162,13.863,4.533,4.533,236.641,221.736,216.922
0.163,14.074,4.584,4.584,236.704,221.808,217.109
0.165,14.284,4.637,4.637,236.767,221.877,217.298
0.166,14.490,4.692,4.692,236.825,221.940,217.486
0.167,14.693,4.747,4.747,236.880,221.997,217.672
0.169,14.888,4.802,4.802,236.927,222.047,217.855
0.170,15.076,4.855,4.855,236.967,222.090,218.033
0.171,15.254,4.905,4.906,236.996,222.125,218.206
0.172,15.423,4.952,4.952,237.014,222.150,218.371
0.174,15.581,4.995,4.995,237.022,222.166,218.529
0.175,15.731,5.036,5.035,237.020,222.176,218.678
0.176,15.873,5.075,5.073,237.013,222.183,218.819
0.178,16.006,5.113,5.112,237.003,222.189,218.952
0.179,16.130,5.153,5.151,236.992,222.196,219.076
0.180,16.246,5.193,5.192,236.983,222.208,219.191
0.181,16.353,5.237,5.237,236.978,222.226,219.296
0.183,16.454,5.284,5.285,236.981,222.253,219.393
0.184,16.550,5.335,5.338,236.994,222.292,219.480
0.185,16.647,5.389,5.393,237.019,222.346,219.557
0.187,16.752,5.445,5.450,237.060,222.416,219.624
0.188,16.873,5.502,5.508,237.118,222.506,219.681
0.189,17.015,5.559,5.565,237.195,222.615,219.727
0.190,17.177,5.617,5.621,237.288,222.742,219.764
0.192,17.356,5.674,5.674,237.395,222.883,219.792
0.193,17.549,5.729,5.724,237.512,223.035,219.811
0.194,17.752,5.781,5.770,237.637,223.195,219.822
0.196,17.963,5.830,5.813,237.768,223.361,219.824
0.197,18.177,5.875,5.853,237.902,223.528,219.819
0.198,18.391,5.915,5.892,238.035,223.694,219.807
0.199,18.600,5.950,5.928,238.166,223.856,219.789
0.201,18.801,5.977,5.963,238.292,224.011,219.764
0.202,18.990,5.996,5.997,238.409,224.156,219.734
0.203,19.163,6.008,6.030,238.516,224.287,219.698
0.205,19.318,6.013,6.062,238.610,224.404,219.658
0.206,19.456,6.013,6.091,238.693,224.505,219.613
0.207,19.579,6.009,6.116,238.764,224.593,219.566
0.208,19.687,6.003,6.138,238.826,224.667,219.517
0.210,19.782,5.998,6.154,238.878,224.729,219.466
0.211,19.866,5.993,6.164,238.921,224.779,219.415
0.212,19.940,5.993,6.166,238.957,224.819,219.364
0.214,20.004,5.996,6.162,238.986,224.848,219.314
0.215,20.061,6.002,6.151,239.010,224.869,219.267
0.216,20.110,6.011,6.136,239.028,224.880,219.223
0.218,20.153,6.022,6.119,239.042,224.885,219.183
0.219,20.190,6.033,6.100,239.053,224.882,219.147
0.220,20.223,6.044,6.082,239.062,224.874,219.117
0.221,20.251,6.054,6.067,239.069,224.861,219.093
0.223,20.276,6.061,6.056,239.073,224.846,219.074
0.224,20.297,6.066,6.049,239.077,224.831,219.060
0.225,20.314,6.068,6.046,239.079,224.817,219.051
0.227,20.326,6.067,6.046,239.081,224.806,219.047
0.228,20.332,6.065,6.047,239.083,224.800,219.047
0.229,20.337,6.062,6.048,239.084,224.800,219.052
0.230,20.351,6.056,6.049,239.086,224.810,219.062
0.232,20.375,6.050,6.048,239.089,224.829,219.076
0.233,20.411,6.043,6.044,239.093,224.861,219.093
0.234,20.462,6.035,6.037,239.098,224.907,219.115
0.236,20.529,6.026,6.027,239.105,224.968,219.141
0.237,20.609,6.015,6.015,239.113,225.043,219.169
0.238,20.701,6.002,6.000,239.124,225.129,219.201
0.239,20.802,5.988,5.984,239.135,225.223,219.234
0.241,20.910,5.970,5.967,239.148,225.324,219.268
0.242,21.020,5.950,5.949,239.163,225.428,219.302
0.243,21.132,5.927,5.930,239.178,225.534,219.336
0.245,21.242,5.901,5.912,239.195,225.637,219.370
0.246,21.348,5.873,5.895,239.212,225.737,219.401
0.247,21.447,5.845,5.878,239.231,225.829,219.430
0.248,21.537,5.816,5.864,239.250,225.913,219.457
0.250,21.614,5.789,5.852,239.270,225.985,219.479
0.251,21.678,5.764,5.844,239.290,226.042,219.498
0.252,21.728,5.742,5.839,239.310,226.086,219.512
0.254,21.766,5.724,5.838,239.329,226.117,219.522
0.255,21.794,5.710,5.840,239.347,226.137,219.529
0.256,21.813,5.699,5.845,239.362,226.147,219.532
0.257,21.825,5.692,5.851,239.375,226.149,219.533
0.259,21.836,5.689,5.857,239.384,226.144,219.532
0.260,21.848,5.689,5.861,239.388,226.133,219.528
0.261,21.864,5.692,5.864,239.388,226.118,219.523
0.263,21.884,5.698,5.862,239.382,226.100,219.516
0.264,21.909,5.707,5.856,239.370,226.080,219.509
0.265,21.937,5.717,5.846,239.350,226.061,219.502
0.266,21.971,5.728,5.833,239.322,226.043,219.494
0.268,22.009,5.738,5.818,239.289,226.027,219.486
0.269,22.046,5.747,5.801,239.254,226.015,219.480
0.270,22.081,5.754,5.785,239.220,226.007,219.476
0.272,22.110,5.757,5.769,239.192,226.006,219.475
0.273,22.129,5.755,5.754,239.173,226.011,219.477
0.274,22.145,5.748,5.741,239.167,226.024,219.484
0.275,22.172,5.733,5.728,239.177,226.046,219.495
0.277,22.220,5.710,5.711,239.208,226.078,219.512
0.278,22.294,5.677,5.687,239.263,226.121,219.536
0.279,22.398,5.632,5.654,239.346,226.176,219.567
0.281,22.537,5.574,5.608,239.461,226.245,219.605
0.282,22.715,5.502,5.547,239.611,226.328,219.653
0.283,22.930,5.414,5.468,239.795,226.424,219.709
0.284,23.175,5.310,5.370,240.007,226.531,219.771
0.286,23.443,5.195,5.257,240.239,226.647,219.837
0.287,23.725,5.073,5.136,240.484,226.768,219.907
0.288,24.015,4.948,5.011,240.736,226.891,219.977
0.290,24.304,4.826,4.887,240.989,227.014,220.046
0.291,24.585,4.711,4.769,241.234,227.135,220.113
0.292,24.850,4.606,4.662,241.465,227.249,220.175
0.293,25.093,4.517,4.571,241.676,227.356,220.230
0.295,25.304,4.446,4.499,241.858,227.451,220.277
0.296,25.477,4.392,4.444,242.007,227.532,220.315
0.297,25.605,4.353,4.404,242.114,227.597,220.340
0.299,25.686,4.327,4.378,242.179,227.644,220.353
0.300,25.729,4.314,4.365,242.207,227.675,220.356
0.301,25.747,4.313,4.363,242.207,227.693,220.352
0.302,25.771,4.321,4.370,242.187,227.701,220.343
0.304,25.806,4.337,4.384,242.154,227.699,220.331
0.305,25.848,4.359,4.404,242.115,227.691,220.320
0.306,25.887,4.383,4.425,242.078,227.679,220.311
0.308,25.918,4.406,4.445,242.051,227.664,220.306
0.309,25.936,4.423,4.461,242.041,227.650,220.310
0.310,25.959,4.431,4.468,242.057,227.639,220.323
0.311,26.013,4.426,4.464,242.104,227.632,220.349
0.313,26.110,4.405,4.446,242.192,227.632,220.389
0.314,26.254,4.365,4.409,242.324,227.641,220.446
0.315,26.438,4.306,4.358,242.494,227.657,220.516
0.317,26.656,4.234,4.295,242.695,227.680,220.597
0.318,26.900,4.153,4.224,242.920,227.708,220.687
0.319,27.163,4.068,4.152,243.162,227.739,220.782
0.320,27.436,3.982,4.081,243.415,227.774,220.881
0.322,27.713,3.902,4.016,243.671,227.809,220.981
0.323,27.986,3.830,3.962,243.923,227.846,221.078
0.324,28.248,3.772,3.923,244.165,227.881,221.171
0.326,28.490,3.727,3.897,244.390,227.915,221.257
0.327,28.706,3.693,3.882,244.590,227.945,221.332
0.328,28.888,3.670,3.876,244.758,227.971,221.395
0.329,29.031,3.655,3.876,244.891,227.992,221.444
0.331,29.138,3.648,3.880,244.990,228.008,221.481
0.332,29.213,3.646,3.885,245.060,228.021,221.507
0.333,29.262,3.648,3.889,245.105,228.031,221.525
0.335,29.291,3.654,3.890,245.129,228.039,221.537
0.336,29.305,3.661,3.888,245.137,228.046,221.546
0.337,29.316,3.670,3.884,245.132,228.053,221.554
0.338,29.333,3.679,3.879,245.120,228.060,221.564
0.340,29.355,3.687,3.874,245.105,228.069,221.577
0.341,29.382,3.695,3.870,245.090,228.081,221.596
0.342,29.415,3.702,3.868,245.080,228.096,221.624
0.344,29.458,3.706,3.868,245.080,228.115,221.662
0.345,29.515,3.707,3.872,245.092,228.139,221.713
0.346,29.589,3.706,3.878,245.117,228.169,221.775
0.347,29.677,3.704,3.885,245.153,228.204,221.848
0.349,29.778,3.702,3.893,245.197,228.244,221.929
0.350,29.891,3.700,3.900,245.249,228.290,222.018
0.351,30.012,3.700,3.907,245.306,228.341,222.112
0.353,30.141,3.702,3.911,245.366,228.399,222.211
0.354,30.276,3.707,3.912,245.429,228.462,222.312
0.355,30.414,3.715,3.910,245.491,228.531,222.414
0.356,30.554,3.727,3.905,245.552,228.607,222.516
0.358,30.695,3.741,3.900,245.609,228.688,222.615
0.359,30.835,3.756,3.895,245.661,228.776,222.711
0.360,30.974,3.773,3.890,245.707,228.869,222.803
0.362,31.111,3.790,3.889,245.746,228.968,222.889
0.363,31.247,3.806,3.890,245.783,229.069,222.972
0.364,31.381,3.823,3.896,245.819,229.171,223.052
0.366,31.514,3.838,3.907,245.857,229.272,223.130
0.367,31.645,3.854,3.923,245.899,229.369,223.207
0.368,31.774,3.870,3.943,245.948,229.460,223.284
0.369,31.903,3.889,3.967,246.005,229.544,223.362
0.371,32.032,3.910,3.994,246.074,229.619,223.443
0.372,32.165,3.935,4.025,246.158,229.681,223.525
0.373,32.306,3.964,4.058,246.257,229.729,223.612
0.375,32.459,3.998,4.093,246.375,229.762,223.704
0.376,32.629,4.037,4.130,246.515,229.777,223.801
0.377,32.818,4.080,4.170,246.674,229.774,223.903
0.378,33.022,4.127,4.212,246.847,229.757,224.009
0.380,33.238,4.177,4.256,247.032,229.727,224.115
0.381,33.460,4.228,4.303,247.224,229.686,224.221
0.382,33.686,4.281,4.353,247.418,229.638,224.325
0.384,33.909,4.333,4.405,247.610,229.584,224.425
0.385,34.125,4.385,4.460,247.795,229.526,224.520
0.386,34.329,4.435,4.516,247.971,229.468,224.606
0.387,34.516,4.483,4.572,248.131,229.411,224.683
0.389,34.681,4.527,4.625,248.273,229.357,224.749
0.390,34.819,4.567,4.674,248.391,229.309,224.802
0.391,34.925,4.602,4.715,248.482,229.270,224.840
0.393,34.999,4.630,4.749,248.545,229.239,224.863
0.394,35.046,4.652,4.771,248.585,229.217,224.875
0.395,35.072,4.665,4.782,248.607,229.203,224.877
0.396,35.083,4.673,4.782,248.613,229.195,224.872
0.398,35.093,4.676,4.775,248.610,229.193,224.863
0.399,35.107,4.676,4.763,248.602,229.197,224.852
0.400,35.123,4.677,4.750,248.592,229.205,224.842
0.402,35.138,4.679,4.737,248.586,229.216,224.836
0.403,35.153,4.684,4.729,248.587,229.231,224.835
0.404,35.176,4.696,4.727,248.600,229.247,224.842
0.405,35.215,4.714,4.733,248.630,229.265,224.861
0.407,35.278,4.739,4.748,248.681,229.284,224.893
0.408,35.367,4.770,4.771,248.754,229.303,224.939
0.409,35.477,4.806,4.801,248.847,229.321,224.997
0.411,35.605,4.846,4.838,248.954,229.338,225.065
0.412,35.746,4.888,4.880,249.073,229.355,225.138
0.413,35.896,4.933,4.928,249.200,229.371,225.216
0.414,36.050,4.978,4.980,249.332,229.385,225.295
0.416,36.204,5.024,5.036,249.464,229.398,225.373
0.417,36.353,5.069,5.092,249.593,229.408,225.447
0.418,36.494,5.112,5.148,249.716,229.417,225.515
0.420,36.621,5.152,5.201,249.828,229.423,225.574
0.421,36.730,5.187,5.248,249.927,229.426,225.621
0.422,36.817,5.217,5.287,250.008,229.426,225.654
0.423,36.881,5.241,5.316,250.069,229.423,225.672
0.425,36.926,5.256,5.334,250.113,229.419,225.677
0.426,36.956,5.264,5.339,250.142,229.413,225.672
0.427,36.977,5.266,5.334,250.159,229.408,225.661
0.429,36.994,5.265,5.323,250.166,229.403,225.647
0.430,37.009,5.261,5.309,250.167,229.402,225.631
0.431,37.023,5.257,5.295,250.162,229.404,225.618
0.432,37.035,5.256,5.283,250.156,229.410,225.611
0.434,37.048,5.258,5.277,250.150,229.422,225.612
0.435,37.071,5.266,5.281,250.147,229.441,225.624
0.436,37.108,5.280,5.294,250.150,229.468,225.650
0.438,37.166,5.300,5.315,250.162,229.503,225.694
0.439,37.246,5.326,5.345,250.183,229.548,225.757
0.440,37.347,5.357,5.382,250.214,229.602,225.837
0.441,37.466,5.392,5.424,250.253,229.662,225.931
0.443,37.598,5.431,5.471,250.298,229.728,226.036
0.444,37.741,5.473,5.522,250.349,229.799,226.149
0.445,37.891,5.518,5.576,250.405,229.872,226.268
0.447,38.044,5.564,5.631,250.463,229.946,226.389
0.448,38.197,5.611,5.686,250.523,230.020,226.509
0.449,38.347,5.657,5.740,250.584,230.093,226.625
0.450,38.490,5.700,5.791,250.643,230.163,226.735
0.452,38.623,5.739,5.838,250.701,230.228,226.835
0.453,38.742,5.772,5.879,250.755,230.288,226.923
0.454,38.845,5.799,5.914,250.805,230.341,226.996
0.456,38.932,5.818,5.940,250.849,230.386,227.054
0.457,39.004,5.829,5.959,250.888,230.426,227.100
0.458,39.062,5.835,5.971,250.921,230.460,227.134
0.459,39.108,5.837,5.978,250.948,230.489,227.158
0.461,39.143,5.836,5.979,250.968,230.514,227.173
0.462,39.169,5.834,5.977,250.980,230.535,227.181
0.463,39.188,5.833,5.972,250.986,230.553,227.184
0.465,39.203,5.834,5.966,250.983,230.568,227.181
0.466,39.221,5.839,5.958,250.971,230.581,227.176
0.467,39.246,5.846,5.951,250.951,230.593,227.170
0.468,39.278,5.855,5.944,250.922,230.604,227.163
0.470,39.318,5.866,5.937,250.883,230.615,227.158
0.471,39.365,5.877,5.933,250.838,230.626,227.155
0.472,39.417,5.887,5.931,250.789,230.641,227.158
0.474,39.470,5.895,5.932,250.739,230.660,227.166
0.475,39.524,5.902,5.936,250.693,230.684,227.182
0.476,39.581,5.905,5.944,250.654,230.716,227.208
0.477,39.643,5.908,5.957,250.626,230.756,227.245
0.479,39.715,5.911,5.975,250.611,230.806,227.295
0.480,39.805,5.916,5.999,250.613,230.869,227.360
0.481,39.918,5.925,6.028,250.636,230.944,227.440
0.483,40.059,5.941,6.064,250.683,231.035,227.539
0.484,40.235,5.964,6.106,250.758,231.141,227.656
0.485,40.449,5.996,6.155,250.864,231.265,227.795
0.486,40.700,6.038,6.212,250.998,231.406,227.953
0.488,40.980,6.089,6.273,251.156,231.559,228.126
0.489,41.282,6.146,6.337,251.331,231.722,228.311
0.490,41.600,6.209,6.401,251.520,231.891,228.503
0.492,41.925,6.274,6.465,251.715,232.063,228.699
0.493,42.252,6.341,6.524,251.913,232.234,228.894
0.494,42.571,6.408,6.579,252.106,232.401,229.085
0.495,42.876,6.473,6.625,252.291,232.561,229.268
0.497,43.160,6.535,6.664,252.461,232.710,229.439
0.498,43.415,6.593,6.697,252.611,232.846,229.594
0.499,43.633,6.647,6.724,252.736,232.964,229.729
0.501,43.809,6.698,6.749,252.830,233.062,229.841
0.502,43.941,6.744,6.773,252.893,233.138,229.928
0.503,44.035,6.786,6.797,252.929,233.197,229.993
0.505,44.099,6.823,6.824,252.942,233.240,230.038
0.506,44.141,6.854,6.855,252.936,233.270,230.067
0.507,44.173,6.881,6.889,252.915,233.290,230.081
0.508,44.207,6.903,6.925,252.885,233.303,230.083
0.510,44.246,6.919,6.960,252.847,233.312,230.076
0.511,44.288,6.932,6.993,252.808,233.318,230.062
0.512,44.330,6.939,7.021,252.772,233.326,230.043
0.514,44.368,6.943,7.042,252.741,233.337,230.023
0.515,44.401,6.942,7.055,252.722,233.355,230.003
0.516,44.433,6.937,7.057,252.717,233.381,229.986
0.517,44.473,6.929,7.049,252.728,233.418,229.973
0.519,44.525,6.917,7.034,252.752,233.462,229.964
0.520,44.586,6.902,7.013,252.788,233.512,229.959
0.521,44.655,6.884,6.987,252.830,233.566,229.955
0.523,44.727,6.865,6.960,252.877,233.621,229.953
0.524,44.799,6.843,6.933,252.925,233.675,229.951
