"T","Distance","Radius","FreeRadius","X","Y","Z"
0.000,0.000,2.850,2.850,205.000,225.672,196.349
0.001,0.154,2.886,2.886,205.142,225.645,196.294
0.002,0.308,2.923,2.923,205.283,225.619,196.238
0.004,0.463,2.962,2.962,205.424,225.594,196.182
0.005,0.617,3.002,3.002,205.566,225.570,196.124
0.006,0.773,3.046,3.046,205.708,225.549,196.064
0.007,0.929,3.094,3.094,205.851,225.530,196.003
0.008,1.087,3.147,3.147,205.993,225.515,195.939
0.009,1.246,3.204,3.204,206.137,225.503,195.871
0.011,1.406,3.269,3.269,206.281,225.496,195.800
0.012,1.569,3.339,3.339,206.426,225.493,195.726
0.013,1.735,3.414,3.414,206.571,225.496,195.646
0.014,1.904,3.493,3.493,206.717,225.505,195.562
0.015,2.076,3.574,3.574,206.865,225.521,195.473
0.017,2.253,3.657,3.657,207.012,225.543,195.379
0.018,2.432,3.740,3.740,207.159,225.571,195.281
0.019,2.611,3.823,3.823,207.304,225.604,195.181
0.020,2.790,3.903,3.903,207.446,225.642,195.080
0.021,2.966,3.980,3.980,207.584,225.684,194.979
0.022,3.137,4.053,4.053,207.716,225.729,194.879
0.024,3.302,4.121,4.121,207.842,225.776,194.783
0.025,3.459,4.183,4.183,207.959,225.825,194.691
0.026,3.606,4.238,4.238,208.067,225.875,194.605
0.027,3.742,4.286,4.286,208.165,225.925,194.525
0.028,3.864,4.324,4.324,208.252,225.975,194.454
0.030,3.972,4.353,4.353,208.325,226.023,194.392
0.031,4.063,4.371,4.371,208.385,226.070,194.342
0.032,4.140,4.380,4.380,208.431,226.115,194.301
0.033,4.205,4.379,4.379,208.466,226.159,194.268
0.034,4.261,4.373,4.373,208.491,226.202,194.241
0.035,4.312,4.363,4.363,208.508,226.243,194.217
0.037,4.360,4.351,4.351,208.519,226.284,194.195
0.038,4.406,4.339,4.339,208.525,226.325,194.173
0.039,4.454,4.329,4.329,208.527,226.366,194.149
0.040,4.504,4.324,4.324,208.529,226.407,194.120
0.041,4.559,4.326,4.326,208.530,226.449,194.085
0.043,4.620,4.334,4.334,208.533,226.492,194.041
0.044,4.690,4.348,4.348,208.540,226.536,193.987
0.045,4.772,4.367,4.367,208.552,226.581,193.920
0.046,4.867,4.390,4.390,208.571,226.628,193.840
0.047,4.974,4.417,4.417,208.595,226.677,193.747
0.048,5.091,4.446,4.446,208.624,226.726,193.646
0.050,5.215,4.477,4.477,208.658,226.776,193.537
0.051,5.343,4.509,4.509,208.694,226.825,193.424
0.052,5.474,4.542,4.542,208.733,226.874,193.309
0.053,5.604,4.574,4.574,208.773,226.921,193.195
0.054,5.731,4.606,4.606,208.813,226.967,193.083
0.055,5.853,4.635,4.635,208.853,227.011,192.977
0.057,5.966,4.662,4.662,208.892,227.051,192.879
0.058,6.069,4.685,4.685,208.928,227.089,192.791
0.059,6.158,4.705,4.705,208.962,227.123,192.715
0.060,6.231,4.720,4.720,208.991,227.153,192.655
0.061,6.288,4.729,4.729,209.016,227.179,192.611
0.063,6.332,4.733,4.733,209.037,227.202,192.580
0.064,6.364,4.734,4.734,209.054,227.222,192.561
0.065,6.389,4.732,4.732,209.068,227.239,192.551
0.066,6.409,4.728,4.728,209.079,227.256,192.549
0.067,6.428,4.723,4.723,209.088,227.272,192.552
0.068,6.446,4.719,4.719,209.095,227.287,192.558
0.070,6.465,4.716,4.716,209.100,227.304,192.566
0.071,6.485,4.716,4.716,209.104,227.322,192.574
0.072,6.506,4.719,4.719,209.108,227.342,192.578
0.073,6.529,4.725,4.725,209.110,227.365,192.578
0.074,6.557,4.732,4.732,209.113,227.392,192.570
0.076,6.591,4.742,4.742,209.116,227.422,192.554
0.077,6.633,4.751,4.751,209.120,227.457,192.531
0.078,6.681,4.761,4.761,209.124,227.494,192.501
0.079,6.733,4.770,4.770,209.129,227.532,192.467
0.080,6.787,4.777,4.777,209.136,227.572,192.431
0.081,6.841,4.782,4.782,209.143,227.612,192.394
0.083,6.894,4.784,4.784,209.151,227.650,192.360
0.084,6.943,4.785,4.785,209.161,227.687,192.328
0.085,6.987,4.784,4.784,209.172,227.721,192.302
0.086,7.025,4.782,4.782,209.184,227.752,192.283
0.087,7.056,4.779,4.779,209.199,227.777,192.274
0.089,7.082,4.776,4.776,209.215,227.798,192.275
0.090,7.109,4.773,4.773,209.233,227.811,192.289
0.091,7.144,4.770,4.770,209.253,227.818,192.317
0.092,7.186,4.769,4.769,209.274,227.820,192.353
0.093,7.232,4.767,4.767,209.296,227.818,192.394
0.094,7.279,4.764,4.764,209.317,227.814,192.436
0.096,7.321,4.758,4.758,209.337,227.811,192.472
0.097,7.354,4.750,4.750,209.356,227.809,192.500
0.098,7.376,4.738,4.738,209.372,227.810,192.514
0.099,7.391,4.720,4.720,209.385,227.816,192.509
0.100,7.423,4.696,4.696,209.394,227.829,192.481
0.102,7.482,4.664,4.664,209.398,227.851,192.426
0.103,7.575,4.626,4.626,209.397,227.883,192.338
0.104,7.708,4.583,4.583,209.389,227.927,192.214
0.105,7.883,4.538,4.538,209.374,227.985,192.048
0.106,8.102,4.493,4.493,209.353,228.056,191.843
0.107,8.357,4.450,4.450,209.326,228.139,191.603
0.109,8.643,4.412,4.412,209.294,228.232,191.335
0.110,8.951,4.380,4.380,209.258,228.332,191.046
0.111,9.276,4.357,4.357,209.218,228.438,190.741
0.112,9.611,4.345,4.345,209.177,228.548,190.427
0.113,9.949,4.342,4.342,209.135,228.660,190.111
0.115,10.284,4.349,4.349,209.092,228.772,189.798
0.116,10.609,4.362,4.362,209.050,228.881,189.495
0.117,10.917,4.380,4.380,209.010,228.987,189.208
0.118,11.202,4.402,4.402,208.972,229.087,188.944
0.119,11.457,4.426,4.426,208.939,229.179,188.709
0.120,11.677,4.450,4.450,208.909,229.261,188.507
0.122,11.862,4.474,4.474,208.884,229.334,188.339
0.123,12.015,4.495,4.495,208.863,229.398,188.202
0.124,12.139,4.514,4.514,208.846,229.454,188.092
0.125,12.239,4.530,4.530,208.831,229.502,188.006
0.126,12.316,4.544,4.544,208.820,229.543,187.942
0.128,12.374,4.555,4.555,208.811,229.578,187.896
0.129,12.417,4.564,4.564,208.805,229.607,187.866
0.130,12.447,4.570,4.570,208.800,229.631,187.848
0.131,12.469,4.574,4.574,208.796,229.651,187.840
0.132,12.485,4.575,4.575,208.794,229.667,187.838
0.133,12.498,4.573,4.573,208.792,229.680,187.840
0.135,12.509,4.570,4.570,208.791,229.690,187.843
0.136,12.518,4.565,4.565,208.790,229.699,187.844
0.137,12.526,4.559,4.559,208.789,229.707,187.842
0.138,12.535,4.553,4.553,208.791,229.714,187.836
0.139,12.549,4.548,4.548,208.796,229.722,187.826
0.140,12.569,4.543,4.543,208.804,229.732,187.810
0.142,12.597,4.539,4.539,208.817,229.743,187.788
0.143,12.634,4.537,4.537,208.834,229.758,187.759
0.144,12.683,4.537,4.537,208.859,229.776,187.721
0.145,12.743,4.539,4.539,208.890,229.798,187.674
0.146,12.818,4.544,4.544,208.929,229.826,187.617
0.148,12.907,4.552,4.552,208.976,229.860,187.549
0.149,13.014,4.563,4.563,209.033,229.901,187.469
0.150,13.138,4.577,4.577,209.101,229.949,187.376
0.151,13.280,4.595,4.595,209.178,230.005,187.272
0.152,13.436,4.617,4.617,209.265,230.067,187.157
0.153,13.605,4.643,4.643,209.359,230.134,187.034
0.155,13.784,4.673,4.673,209.460,230.205,186.905
0.156,13.969,4.708,4.708,209.566,230.279,186.772
0.157,14.160,4.748,4.748,209.676,230.354,186.636
0.158,14.353,4.792,4.792,209.789,230.431,186.500
0.159,14.545,4.841,4.841,209.904,230.507,186.366
0.161,14.735,4.896,4.896,210.020,230.582,186.235
0.162,14.920,4.955,4.955,210.135,230.654,186.110
0.163,15.097,5.020,5.020,210.249,230.722,185.992
0.164,15.264,5.088,5.088,210.360,230.786,185.884
0.165,15.420,5.158,5.158,210.466,230.844,185.787
0.166,15.565,5.228,5.228,210.569,230.897,185.700
0.168,15.699,5.297,5.297,210.668,230.944,185.622
0.169,15.825,5.362,5.362,210.763,230.987,185.552
0.170,15.943,5.422,5.422,210.854,231.026,185.488
0.171,16.054,5.475,5.475,210.942,231.061,185.429
0.172,16.160,5.519,5.519,211.026,231.093,185.374
0.174,16.261,5.556,5.556,211.107,231.122,185.321
0.175,16.358,5.586,5.586,211.185,231.148,185.269
0.176,16.452,5.611,5.611,211.259,231.172,185.217
0.177,16.544,5.633,5.633,211.331,231.195,185.164
0.178,16.636,5.654,5.654,211.400,231.216,185.107
0.179,16.728,5.675,5.675,211.466,231.237,185.046
0.181,16.821,5.698,5.698,211.529,231.257,184.980
0.182,16.915,5.726,5.726,211.588,231.277,184.911
0.183,17.008,5.759,5.759,211.645,231.296,184.839
0.184,17.100,5.796,5.796,211.698,231.314,184.766
0.185,17.189,5.836,5.836,211.746,231.332,184.694
0.187,17.275,5.877,5.877,211.791,231.349,184.622
0.188,17.356,5.918,5.918,211.830,231.366,184.553
0.189,17.431,5.958,5.958,211.865,231.382,184.488
0.190,17.500,5.994,5.994,211.894,231.397,184.428
0.191,17.561,6.026,6.026,211.918,231.411,184.374
0.192,17.612,6.052,6.052,211.935,231.425,184.328
0.194,17.653,6.072,6.072,211.947,231.438,184.290
0.195,17.684,6.086,6.087,211.952,231.450,184.262
0.196,17.706,6.096,6.097,211.951,231.461,184.243
0.197,17.721,6.103,6.104,211.946,231.471,184.232
0.198,17.734,6.108,6.108,211.938,231.479,184.227
0.200,17.745,6.111,6.111,211.929,231.486,184.226
0.201,17.755,6.114,6.114,211.921,231.491,184.227
0.202,17.763,6.118,6.118,211.914,231.494,184.229
0.203,17.767,6.124,6.124,211.910,231.495,184.230
0.204,17.769,6.132,6.131,211.912,231.494,184.229
0.205,17.780,6.141,6.140,211.919,231.490,184.223
0.207,17.800,6.152,6.150,211.934,231.483,184.211
0.208,17.833,6.164,6.162,211.959,231.474,184.191
0.209,17.881,6.177,6.176,211.994,231.461,184.161
0.210,17.944,6.192,6.190,212.041,231.445,184.122
0.211,18.022,6.207,6.206,212.098,231.427,184.072
0.213,18.111,6.223,6.223,212.163,231.406,184.016
0.214,18.208,6.239,6.240,212.234,231.384,183.954
0.215,18.310,6.255,6.258,212.309,231.360,183.888
0.216,18.415,6.271,6.275,212.386,231.336,183.821
0.217,18.520,6.286,6.292,212.462,231.312,183.753
0.218,18.621,6.299,6.306,212.537,231.288,183.688
0.220,18.717,6.311,6.319,212.606,231.266,183.627
0.221,18.803,6.321,6.328,212.669,231.245,183.571
0.222,18.878,6.328,6.335,212.724,231.225,183.523
0.223,18.939,6.332,6.337,212.767,231.209,183.484
0.224,18.982,6.333,6.337,212.798,231.196,183.457
0.226,19.008,6.333,6.334,212.816,231.186,183.442
0.227,19.019,6.330,6.329,212.823,231.179,183.436
0.228,19.024,6.327,6.324,212.820,231.175,183.438
0.229,19.037,6.323,6.319,212.811,231.173,183.446
0.230,19.055,6.320,6.316,212.797,231.173,183.457
0.231,19.076,6.317,6.314,212.781,231.175,183.471
0.233,19.098,6.316,6.317,212.764,231.179,183.484
0.234,19.117,6.316,6.322,212.749,231.183,183.495
0.235,19.131,6.317,6.331,212.738,231.188,183.502
0.236,19.138,6.318,6.340,212.733,231.194,183.502
0.237,19.149,6.320,6.351,212.736,231.199,183.495
0.238,19.172,6.322,6.361,212.749,231.205,183.477
0.240,19.211,6.322,6.369,212.775,231.210,183.447
0.241,19.268,6.321,6.374,212.812,231.215,183.404
0.242,19.342,6.318,6.376,212.860,231.221,183.348
0.243,19.430,6.312,6.373,212.916,231.229,183.281
0.244,19.532,6.303,6.365,212.978,231.240,183.201
0.246,19.647,6.290,6.352,213.046,231.255,183.109
0.247,19.774,6.273,6.333,213.116,231.276,183.006
0.248,19.912,6.249,6.309,213.188,231.302,182.890
0.249,20.062,6.220,6.280,213.260,231.336,182.763
0.250,20.223,6.183,6.245,213.330,231.378,182.625
0.251,20.394,6.139,6.205,213.396,231.428,182.475
0.253,20.576,6.086,6.160,213.457,231.489,182.315
0.254,20.770,6.025,6.110,213.511,231.561,182.143
0.255,20.975,5.956,6.055,213.556,231.645,181.962
0.256,21.189,5.883,5.998,213.594,231.738,181.772
0.257,21.410,5.808,5.940,213.624,231.838,181.578
0.259,21.635,5.732,5.882,213.648,231.944,181.381
0.260,21.860,5.658,5.826,213.665,232.053,181.185
0.261,22.082,5.588,5.772,213.678,232.162,180.991
0.262,22.298,5.525,5.722,213.686,232.269,180.804
0.263,22.505,5.469,5.678,213.690,232.373,180.625
0.264,22.699,5.423,5.639,213.691,232.471,180.458
0.266,22.876,5.386,5.606,213.689,232.560,180.305
0.267,23.034,5.356,5.578,213.686,232.639,180.168
0.268,23.168,5.333,5.554,213.681,232.705,180.052
0.269,23.276,5.318,5.533,213.677,232.756,179.957
0.270,23.357,5.308,5.517,213.672,232.793,179.885
0.272,23.415,5.304,5.503,213.667,232.816,179.832
0.273,23.454,5.304,5.491,213.663,232.828,179.795
0.274,23.478,5.309,5.481,213.660,232.832,179.771
0.275,23.492,5.317,5.474,213.657,232.830,179.758
0.276,23.501,5.325,5.468,213.656,232.823,179.752
0.277,23.509,5.334,5.464,213.656,232.815,179.749
0.279,23.517,5.340,5.462,213.657,232.807,179.748
0.280,23.524,5.343,5.462,213.660,232.802,179.744
0.281,23.534,5.342,5.464,213.665,232.802,179.735
0.282,23.554,5.334,5.468,213.673,232.809,179.718
0.283,23.589,5.318,5.474,213.682,232.826,179.690
0.285,23.641,5.294,5.482,213.695,232.854,179.647
0.286,23.712,5.264,5.489,213.710,232.892,179.589
0.287,23.801,5.229,5.494,213.729,232.939,179.516
0.288,23.907,5.192,5.496,213.751,232.994,179.428
0.289,24.029,5.154,5.492,213.777,233.053,179.325
0.290,24.167,5.117,5.481,213.807,233.116,179.206
0.292,24.320,5.083,5.462,213.843,233.181,179.072
0.293,24.488,5.054,5.433,213.883,233.246,178.923
0.294,24.670,5.030,5.392,213.929,233.308,178.758
0.295,24.867,5.012,5.342,213.981,233.367,178.577
0.296,25.078,4.999,5.285,214.038,233.421,178.381
0.298,25.304,4.989,5.224,214.103,233.467,178.170
0.299,25.544,4.982,5.161,214.174,233.504,177.943
0.300,25.800,4.977,5.100,214.252,233.531,177.701
0.301,26.067,4.972,5.042,214.335,233.549,177.448
0.302,26.342,4.967,4.991,214.423,233.558,177.187
0.303,26.622,4.960,4.949,214.514,233.561,176.923
0.305,26.901,4.951,4.918,214.606,233.557,176.659
0.306,27.178,4.940,4.895,214.698,233.549,176.399
0.307,27.446,4.927,4.880,214.788,233.536,176.146
0.308,27.703,4.913,4.869,214.877,233.521,175.905
0.309,27.945,4.898,4.863,214.961,233.505,175.679
0.311,28.166,4.883,4.858,215.039,233.487,175.473
0.312,28.364,4.866,4.853,215.111,233.471,175.289
0.313,28.535,4.849,4.847,215.174,233.456,175.132
0.314,28.673,4.832,4.838,215.228,233.444,175.005
0.315,28.779,4.816,4.826,215.273,233.435,174.908
0.316,28.857,4.800,4.813,215.308,233.428,174.839
0.318,28.910,4.786,4.799,215.336,233.425,174.794
0.319,28.942,4.774,4.785,215.357,233.423,174.770
0.320,28.958,4.764,4.773,215.371,233.424,174.764
0.321,28.971,4.758,4.763,215.381,233.426,174.771
0.322,28.991,4.755,4.757,215.387,233.430,174.790
0.323,29.018,4.756,4.755,215.390,233.435,174.817
0.325,29.050,4.761,4.759,215.390,233.441,174.848
0.326,29.083,4.770,4.767,215.390,233.447,174.880
0.327,29.114,4.781,4.778,215.389,233.454,174.911
0.328,29.140,4.794,4.791,215.389,233.460,174.936
0.329,29.159,4.808,4.805,215.390,233.466,174.953
0.331,29.170,4.820,4.818,215.393,233.472,174.962
0.332,29.177,4.832,4.831,215.397,233.477,174.965
0.333,29.184,4.841,4.841,215.402,233.481,174.963
0.334,29.193,4.847,4.847,215.407,233.485,174.956
0.335,29.205,4.849,4.850,215.412,233.488,174.945
0.336,29.218,4.849,4.850,215.416,233.489,174.933
0.338,29.231,4.846,4.847,215.420,233.490,174.920
0.339,29.244,4.841,4.842,215.423,233.489,174.908
0.340,29.256,4.834,4.836,215.424,233.486,174.897
0.341,29.265,4.827,4.828,215.424,233.482,174.889
0.342,29.272,4.819,4.819,215.421,233.477,174.884
0.344,29.281,4.811,4.811,215.416,233.470,174.885
0.345,29.295,4.803,4.802,215.408,233.461,174.891
0.346,29.311,4.795,4.794,215.398,233.451,174.901
0.347,29.330,4.789,4.786,215.388,233.441,174.912
0.348,29.348,4.783,4.780,215.377,233.432,174.924
0.349,29.364,4.779,4.775,215.367,233.425,174.934
0.351,29.376,4.775,4.772,215.359,233.420,174.941
0.352,29.382,4.774,4.772,215.354,233.418,174.942
0.353,29.388,4.774,4.773,215.351,233.420,174.936
0.354,29.405,4.776,4.777,215.353,233.428,174.921
0.355,29.434,4.780,4.784,215.360,233.441,174.896
0.357,29.479,4.786,4.794,215.373,233.460,174.858
0.358,29.541,4.793,4.804,215.393,233.487,174.806
0.359,29.622,4.802,4.817,215.420,233.523,174.738
0.360,29.723,4.811,4.830,215.454,233.565,174.653
0.361,29.842,4.821,4.843,215.495,233.614,174.553
0.362,29.978,4.832,4.857,215.542,233.668,174.437
0.364,30.128,4.842,4.869,215.593,233.725,174.308
0.365,30.293,4.853,4.882,215.648,233.784,174.164
0.366,30.470,4.864,4.893,215.705,233.843,174.008
0.367,30.658,4.875,4.905,215.765,233.901,173.839
0.368,30.856,4.888,4.917,215.825,233.956,173.658
0.370,31.063,4.902,4.929,215.885,234.008,173.466
0.371,31.279,4.918,4.944,215.943,234.053,173.265
0.372,31.501,4.937,4.959,216.000,234.092,173.053
0.373,31.730,4.959,4.978,216.054,234.123,172.832
0.374,31.965,4.984,4.998,216.104,234.143,172.604
0.375,32.205,5.011,5.022,216.152,234.155,172.369
0.377,32.447,5.041,5.048,216.198,234.159,172.131
0.378,32.691,5.071,5.078,216.244,234.156,171.892
0.379,32.934,5.102,5.110,216.291,234.148,171.653
0.380,33.175,5.130,5.145,216.341,234.135,171.418
0.381,33.411,5.156,5.184,216.395,234.118,171.189
0.383,33.640,5.178,5.225,216.454,234.099,170.969
0.384,33.861,5.195,5.269,216.519,234.079,170.759
0.385,34.072,5.207,5.316,216.592,234.058,170.562
0.386,34.272,5.213,5.364,216.674,234.038,170.380
0.387,34.461,5.217,5.414,216.767,234.019,170.216
0.388,34.640,5.221,5.464,216.871,234.004,170.072
0.390,34.809,5.225,5.512,216.987,233.993,169.949
0.391,34.972,5.231,5.558,217.113,233.984,169.846
0.392,35.131,5.243,5.601,217.247,233.978,169.760
0.393,35.287,5.260,5.640,217.386,233.975,169.691
0.394,35.439,5.286,5.673,217.528,233.974,169.635
0.396,35.589,5.320,5.701,217.672,233.975,169.592
0.397,35.736,5.361,5.724,217.815,233.977,169.560
0.398,35.878,5.407,5.742,217.955,233.980,169.537
0.399,36.013,5.456,5.757,218.089,233.983,169.521
0.400,36.141,5.505,5.770,218.217,233.987,169.511
0.401,36.260,5.552,5.780,218.335,233.991,169.504
0.403,36.366,5.597,5.790,218.441,233.995,169.500
0.404,36.459,5.636,5.799,218.534,233.998,169.496
0.405,36.539,5.667,5.808,218.614,233.999,169.491
0.406,36.607,5.692,5.818,218.682,234.000,169.487
0.407,36.665,5.710,5.828,218.739,234.001,169.482
0.409,36.714,5.723,5.839,218.788,234.001,169.477
0.410,36.755,5.731,5.850,218.829,234.001,169.471
0.411,36.791,5.735,5.861,218.865,234.000,169.466
0.412,36.823,5.736,5.873,218.896,233.999,169.460
0.413,36.852,5.735,5.884,218.924,233.998,169.453
0.414,36.880,5.733,5.896,218.951,233.998,169.447
0.416,36.908,5.730,5.908,218.978,233.997,169.440
0.417,36.938,5.727,5.920,219.007,233.997,169.433
0.418,36.971,5.725,5.932,219.040,233.998,169.425
0.419,37.008,5.724,5.944,219.076,233.999,169.417
0.420,37.051,5.725,5.955,219.118,234.001,169.408
0.421,37.099,5.729,5.966,219.163,234.006,169.396
0.423,37.152,5.735,5.976,219.214,234.013,169.380
0.424,37.212,5.745,5.986,219.269,234.023,169.359
0.425,37.279,5.760,5.994,219.329,234.037,169.332
0.426,37.354,5.778,6.003,219.393,234.056,169.298
0.427,37.438,5.801,6.012,219.461,234.080,169.255
0.429,37.533,5.828,6.022,219.534,234.111,169.203
0.430,37.639,5.859,6.035,219.612,234.148,169.140
0.431,37.758,5.893,6.051,219.693,234.192,169.065
0.432,37.892,5.931,6.071,219.779,234.245,168.978
0.433,38.041,5.971,6.095,219.870,234.306,168.876
0.434,38.206,6.015,6.125,219.964,234.376,168.761
0.436,38.382,6.062,6.161,220.060,234.453,168.634
0.437,38.568,6.110,6.202,220.157,234.536,168.499
0.438,38.760,6.159,6.245,220.254,234.623,168.358
0.439,38.955,6.208,6.290,220.349,234.713,168.213
0.440,39.150,6.256,6.334,220.441,234.804,168.068
0.442,39.341,6.303,6.376,220.528,234.895,167.924
0.443,39.525,6.347,6.414,220.609,234.984,167.784
0.444,39.700,6.387,6.446,220.682,235.071,167.652
0.445,39.861,6.422,6.472,220.747,235.153,167.529
0.446,40.006,6.453,6.490,220.801,235.230,167.418
0.447,40.132,6.479,6.503,220.844,235.299,167.322
0.449,40.236,6.500,6.511,220.874,235.359,167.243
0.450,40.320,6.517,6.517,220.891,235.411,167.179
0.451,40.388,6.530,6.522,220.898,235.456,167.129
0.452,40.444,6.539,6.527,220.895,235.495,167.089
0.453,40.491,6.543,6.534,220.884,235.528,167.056
0.455,40.535,6.544,6.544,220.867,235.557,167.028
0.456,40.578,6.541,6.558,220.845,235.582,167.002
0.457,40.622,6.535,6.576,220.819,235.606,166.975
0.458,40.669,6.528,6.596,220.792,235.628,166.944
0.459,40.721,6.519,6.618,220.764,235.650,166.906
0.460,40.780,6.511,6.639,220.737,235.673,166.859
0.462,40.849,6.503,6.660,220.712,235.697,166.799
0.463,40.931,6.497,6.679,220.691,235.725,166.725
0.464,41.029,6.493,6.695,220.675,235.756,166.633
0.465,41.141,6.493,6.707,220.664,235.789,166.528
0.466,41.263,6.497,6.714,220.658,235.825,166.410
0.468,41.395,6.504,6.717,220.655,235.863,166.285
0.469,41.531,6.512,6.716,220.655,235.901,166.153
0.470,41.671,6.522,6.711,220.659,235.939,166.019
0.471,41.810,6.532,6.703,220.666,235.976,165.885
0.472,41.946,6.542,6.692,220.675,236.012,165.754
0.473,42.076,6.551,6.678,220.685,236.046,165.629
0.475,42.197,6.558,6.662,220.697,236.077,165.513
0.476,42.305,6.562,6.643,220.710,236.104,165.409
0.477,42.398,6.564,6.624,220.724,236.126,165.320
0.478,42.473,6.564,6.605,220.738,236.143,165.248
0.479,42.531,6.562,6.587,220.752,236.156,165.193
0.481,42.573,6.560,6.571,220.764,236.164,165.153
0.482,42.605,6.558,6.560,220.775,236.169,165.124
