"T","Distance","Radius","FreeRadius","X","Y","Z"
0.000,0.000,2.388,2.448,196.165,209.692,192.732
0.001,0.136,2.367,2.409,196.083,209.752,192.822
0.003,0.269,2.344,2.369,196.006,209.814,192.911
0.004,0.399,2.319,2.329,195.936,209.880,192.999
0.005,0.523,2.289,2.288,195.880,209.950,193.085
0.007,0.643,2.255,2.246,195.840,210.027,193.168
0.008,0.762,2.214,2.203,195.822,210.112,193.248
0.009,0.884,2.165,2.158,195.830,210.207,193.325
0.010,1.018,2.108,2.112,195.867,210.314,193.397
0.012,1.172,2.042,2.063,195.938,210.433,193.464
0.013,1.357,1.969,2.014,196.048,210.568,193.525
0.014,1.578,1.893,1.963,196.200,210.719,193.580
0.016,1.837,1.817,1.912,196.392,210.885,193.629
0.017,2.127,1.744,1.861,196.616,211.064,193.671
0.018,2.440,1.676,1.811,196.865,211.253,193.707
0.020,2.770,1.617,1.762,197.129,211.447,193.737
0.021,3.107,1.569,1.714,197.401,211.645,193.761
0.022,3.443,1.534,1.669,197.673,211.842,193.779
0.024,3.771,1.509,1.628,197.937,212.036,193.792
0.025,4.082,1.495,1.592,198.184,212.223,193.800
0.026,4.367,1.490,1.562,198.407,212.401,193.802
0.027,4.619,1.493,1.540,198.598,212.567,193.799
0.029,4.833,1.504,1.527,198.750,212.717,193.792
0.030,5.012,1.521,1.523,198.867,212.852,193.780
0.031,5.162,1.542,1.531,198.952,212.974,193.765
0.033,5.287,1.568,1.548,199.011,213.083,193.748
0.034,5.392,1.597,1.572,199.048,213.179,193.728
0.035,5.482,1.626,1.602,199.068,213.265,193.708
0.037,5.560,1.656,1.635,199.073,213.340,193.688
0.038,5.628,1.683,1.668,199.070,213.405,193.668
0.039,5.689,1.708,1.701,199.062,213.462,193.650
0.041,5.741,1.729,1.730,199.054,213.512,193.633
0.042,5.786,1.745,1.755,199.050,213.554,193.620
0.043,5.825,1.756,1.775,199.051,213.591,193.609
0.045,5.861,1.763,1.791,199.057,213.626,193.601
0.046,5.897,1.767,1.804,199.066,213.660,193.592
0.047,5.935,1.768,1.815,199.079,213.695,193.584
0.048,5.978,1.767,1.823,199.093,213.734,193.575
0.050,6.026,1.765,1.831,199.109,213.779,193.564
0.051,6.084,1.763,1.839,199.125,213.832,193.550
0.052,6.151,1.761,1.847,199.140,213.895,193.532
0.054,6.232,1.761,1.856,199.154,213.971,193.509
0.055,6.327,1.763,1.867,199.166,214.062,193.480
0.056,6.440,1.770,1.880,199.175,214.168,193.446
0.058,6.566,1.783,1.897,199.181,214.288,193.406
0.059,6.704,1.802,1.917,199.184,214.418,193.361
0.060,6.849,1.829,1.943,199.186,214.555,193.313
0.062,6.999,1.865,1.974,199.184,214.697,193.263
0.063,7.151,1.909,2.010,199.181,214.840,193.211
0.064,7.302,1.959,2.048,199.176,214.981,193.159
0.065,7.448,2.012,2.089,199.169,215.117,193.107
0.067,7.586,2.066,2.129,199.160,215.246,193.057
0.068,7.714,2.118,2.168,199.150,215.364,193.010
0.069,7.828,2.167,2.204,199.138,215.468,192.966
0.071,7.928,2.209,2.235,199.125,215.560,192.925
0.072,8.018,2.244,2.261,199.111,215.640,192.888
0.073,8.100,2.271,2.282,199.095,215.712,192.853
0.075,8.176,2.293,2.300,199.078,215.779,192.820
0.076,8.248,2.312,2.315,199.059,215.841,192.789
0.077,8.320,2.330,2.331,199.038,215.902,192.759
0.079,8.392,2.347,2.348,199.015,215.964,192.729
0.080,8.469,2.367,2.367,198.990,216.030,192.699
0.081,8.551,2.390,2.390,198.963,216.101,192.669
0.082,8.641,2.418,2.418,198.934,216.181,192.637
0.084,8.740,2.449,2.449,198.903,216.269,192.605
0.085,8.847,2.482,2.483,198.870,216.365,192.572
0.086,8.958,2.516,2.516,198.836,216.466,192.540
0.088,9.072,2.548,2.549,198.800,216.570,192.510
0.089,9.187,2.579,2.579,198.765,216.676,192.483
0.090,9.299,2.606,2.606,198.729,216.780,192.459
0.092,9.408,2.628,2.627,198.693,216.881,192.441
0.093,9.510,2.644,2.643,198.658,216.976,192.428
0.094,9.605,2.657,2.655,198.625,217.064,192.422
0.096,9.690,2.665,2.663,198.592,217.143,192.425
0.097,9.764,2.670,2.668,198.562,217.210,192.436
0.098,9.829,2.673,2.671,198.534,217.265,192.455
0.099,9.885,2.674,2.673,198.508,217.308,192.479
0.101,9.935,2.675,2.674,198.485,217.341,192.508
0.102,9.978,2.675,2.677,198.465,217.364,192.540
0.103,10.016,2.675,2.680,198.449,217.377,192.571
0.105,10.049,2.677,2.686,198.436,217.381,192.601
0.106,10.077,2.680,2.693,198.427,217.376,192.628
0.107,10.103,2.686,2.704,198.423,217.363,192.650
0.109,10.128,2.695,2.719,198.423,217.343,192.664
0.110,10.155,2.708,2.737,198.428,217.317,192.670
0.111,10.189,2.725,2.760,198.437,217.284,192.666
0.113,10.227,2.747,2.788,198.449,217.250,192.656
0.114,10.265,2.769,2.816,198.462,217.217,192.642
0.115,10.299,2.789,2.841,198.474,217.189,192.626
0.116,10.326,2.803,2.860,198.483,217.169,192.612
0.118,10.339,2.808,2.868,198.488,217.161,192.602
0.119,10.347,2.800,2.861,198.486,217.168,192.599
0.120,10.375,2.775,2.836,198.476,217.193,192.606
0.122,10.430,2.731,2.788,198.457,217.240,192.626
0.123,10.516,2.666,2.718,198.425,217.313,192.660
0.124,10.638,2.585,2.630,198.380,217.414,192.713
0.126,10.794,2.493,2.529,198.323,217.541,192.782
0.127,10.979,2.393,2.420,198.258,217.691,192.867
0.128,11.188,2.290,2.308,198.185,217.861,192.966
0.130,11.417,2.188,2.197,198.109,218.046,193.077
0.131,11.660,2.092,2.094,198.032,218.242,193.198
0.132,11.915,2.005,2.001,197.956,218.447,193.329
0.134,12.175,1.930,1.922,197.884,218.656,193.466
0.135,12.437,1.866,1.856,197.819,218.866,193.609
0.136,12.697,1.814,1.804,197.764,219.074,193.756
0.137,12.951,1.774,1.765,197.720,219.274,193.905
0.139,13.196,1.747,1.740,197.690,219.466,194.054
0.140,13.431,1.732,1.728,197.672,219.648,194.202
0.141,13.657,1.731,1.730,197.664,219.821,194.347
0.143,13.871,1.741,1.746,197.664,219.983,194.488
0.144,14.074,1.763,1.773,197.672,220.134,194.622
0.145,14.263,1.791,1.807,197.685,220.274,194.749
0.147,14.437,1.824,1.846,197.702,220.402,194.865
0.148,14.595,1.859,1.885,197.722,220.519,194.971
0.149,14.736,1.893,1.922,197.742,220.623,195.063
0.151,14.857,1.922,1.954,197.762,220.714,195.141
0.152,14.958,1.945,1.976,197.780,220.792,195.203
0.153,15.042,1.958,1.988,197.795,220.859,195.250
0.154,15.111,1.965,1.992,197.810,220.916,195.286
0.156,15.169,1.966,1.988,197.825,220.966,195.312
0.157,15.221,1.964,1.980,197.840,221.011,195.332
0.158,15.269,1.959,1.970,197.857,221.053,195.347
0.160,15.316,1.954,1.960,197.876,221.095,195.361
0.161,15.367,1.949,1.951,197.898,221.137,195.376
0.162,15.422,1.948,1.947,197.923,221.184,195.394
0.164,15.487,1.950,1.947,197.954,221.235,195.418
0.165,15.564,1.954,1.951,197.989,221.295,195.451
0.166,15.653,1.962,1.958,198.030,221.362,195.492
0.168,15.753,1.971,1.968,198.076,221.437,195.540
0.169,15.861,1.982,1.980,198.125,221.517,195.593
0.170,15.974,1.994,1.993,198.177,221.602,195.649
0.171,16.091,2.007,2.007,198.231,221.689,195.704
0.173,16.207,2.021,2.021,198.286,221.777,195.756
0.174,16.322,2.034,2.034,198.341,221.866,195.805
0.175,16.433,2.047,2.047,198.395,221.952,195.846
0.177,16.537,2.060,2.060,198.447,222.037,195.878
0.178,16.633,2.072,2.071,198.497,222.116,195.899
0.179,16.721,2.082,2.081,198.543,222.191,195.907
0.181,16.803,2.090,2.090,198.586,222.260,195.904
0.182,16.880,2.097,2.097,198.626,222.326,195.893
0.183,16.955,2.101,2.103,198.662,222.390,195.878
0.185,17.027,2.105,2.108,198.696,222.451,195.861
0.186,17.098,2.109,2.113,198.728,222.512,195.845
0.187,17.166,2.115,2.120,198.758,222.573,195.834
0.188,17.235,2.123,2.129,198.786,222.635,195.831
0.190,17.305,2.137,2.142,198.813,222.700,195.839
0.191,17.381,2.156,2.158,198.838,222.768,195.861
0.192,17.466,2.182,2.180,198.862,222.840,195.900
0.194,17.564,2.215,2.208,198.885,222.917,195.955
0.195,17.673,2.254,2.240,198.906,222.999,196.024
0.196,17.791,2.294,2.276,198.924,223.084,196.104
0.198,17.917,2.336,2.314,198.939,223.174,196.190
0.199,18.047,2.375,2.354,198.949,223.268,196.280
0.200,18.178,2.411,2.395,198.955,223.364,196.369
0.202,18.310,2.441,2.435,198.954,223.464,196.455
0.203,18.440,2.462,2.474,198.947,223.566,196.535
0.204,18.567,2.475,2.511,198.933,223.671,196.604
0.205,18.689,2.483,2.545,198.910,223.778,196.660
0.207,18.809,2.486,2.575,198.879,223.887,196.699
0.208,18.928,2.486,2.601,198.842,223.997,196.724
0.209,19.047,2.486,2.622,198.799,224.108,196.735
0.211,19.167,2.488,2.637,198.753,224.218,196.735
0.212,19.286,2.492,2.646,198.706,224.327,196.726
0.213,19.403,2.501,2.647,198.660,224.434,196.710
0.215,19.519,2.515,2.643,198.617,224.539,196.689
0.216,19.630,2.530,2.635,198.579,224.640,196.664
0.217,19.736,2.548,2.626,198.547,224.738,196.638
0.219,19.835,2.566,2.616,198.524,224.830,196.612
0.220,19.926,2.583,2.609,198.512,224.918,196.589
0.221,20.009,2.598,2.605,198.510,224.999,196.568
0.223,20.087,2.609,2.608,198.518,225.074,196.551
0.224,20.159,2.617,2.617,198.533,225.143,196.537
0.225,20.226,2.621,2.632,198.554,225.205,196.525
0.226,20.287,2.622,2.652,198.579,225.261,196.516
0.228,20.344,2.621,2.674,198.607,225.309,196.510
0.229,20.394,2.618,2.698,198.636,225.350,196.505
0.230,20.439,2.614,2.723,198.665,225.384,196.503
0.232,20.476,2.610,2.747,198.692,225.410,196.502
0.233,20.506,2.606,2.768,198.716,225.428,196.503
0.234,20.528,2.602,2.786,198.735,225.439,196.505
0.236,20.543,2.598,2.800,198.748,225.444,196.509
0.237,20.552,2.593,2.810,198.755,225.447,196.514
0.238,20.560,2.587,2.814,198.756,225.450,196.522
0.240,20.573,2.579,2.813,198.749,225.456,196.531
0.241,20.594,2.570,2.805,198.735,225.467,196.542
0.242,20.626,2.558,2.791,198.713,225.486,196.556
0.243,20.673,2.543,2.768,198.682,225.516,196.572
0.245,20.735,2.526,2.739,198.642,225.560,196.590
0.246,20.815,2.507,2.706,198.593,225.620,196.611
0.247,20.917,2.487,2.670,198.533,225.699,196.635
0.249,21.038,2.467,2.633,198.464,225.795,196.661
0.250,21.175,2.448,2.596,198.389,225.906,196.690
0.251,21.324,2.430,2.562,198.309,226.028,196.720
0.253,21.481,2.414,2.533,198.226,226.158,196.752
0.254,21.642,2.401,2.509,198.144,226.292,196.784
0.255,21.803,2.390,2.490,198.064,226.428,196.817
0.257,21.960,2.381,2.476,197.989,226.562,196.851
0.258,22.109,2.373,2.465,197.920,226.690,196.884
0.259,22.247,2.366,2.458,197.860,226.809,196.916
0.260,22.368,2.359,2.453,197.812,226.916,196.948
0.262,22.473,2.352,2.449,197.776,227.010,196.978
0.263,22.561,2.344,2.447,197.751,227.090,197.006
0.264,22.636,2.335,2.444,197.736,227.158,197.033
0.266,22.699,2.325,2.442,197.728,227.215,197.057
0.267,22.752,2.315,2.440,197.727,227.264,197.079
0.268,22.797,2.305,2.438,197.730,227.305,197.097
0.270,22.836,2.295,2.437,197.735,227.340,197.113
0.271,22.869,2.286,2.435,197.741,227.371,197.125
0.272,22.898,2.278,2.434,197.746,227.398,197.133
0.274,22.924,2.271,2.432,197.749,227.423,197.138
0.275,22.949,2.265,2.430,197.747,227.448,197.138
0.276,22.976,2.260,2.427,197.741,227.474,197.134
0.277,23.005,2.256,2.424,197.731,227.501,197.126
0.279,23.039,2.252,2.419,197.718,227.530,197.116
0.280,23.076,2.248,2.412,197.702,227.562,197.104
0.281,23.119,2.244,2.404,197.685,227.597,197.090
0.283,23.165,2.240,2.393,197.666,227.638,197.075
0.284,23.217,2.235,2.379,197.647,227.683,197.060
0.285,23.274,2.228,2.363,197.628,227.734,197.046
0.287,23.336,2.221,2.344,197.610,227.793,197.032
0.288,23.405,2.212,2.323,197.593,227.859,197.020
0.289,23.481,2.201,2.300,197.578,227.932,197.009
0.291,23.563,2.189,2.275,197.566,228.013,197.002
0.292,23.650,2.175,2.248,197.558,228.099,196.997
0.293,23.740,2.158,2.219,197.553,228.190,196.996
0.295,23.835,2.139,2.189,197.553,228.284,196.998
0.296,23.931,2.119,2.158,197.557,228.380,197.005
0.297,24.030,2.099,2.127,197.568,228.478,197.016
0.298,24.130,2.078,2.098,197.585,228.575,197.032
0.300,24.232,2.059,2.071,197.609,228.672,197.054
0.301,24.335,2.041,2.047,197.641,228.766,197.081
0.302,24.440,2.025,2.027,197.681,228.857,197.115
0.304,24.545,2.013,2.011,197.727,228.943,197.153
0.305,24.650,2.004,2.001,197.778,229.025,197.195
0.306,24.752,1.997,1.994,197.831,229.100,197.238
0.308,24.849,1.992,1.990,197.883,229.169,197.282
0.309,24.938,1.989,1.987,197.933,229.230,197.324
0.310,25.018,1.986,1.985,197.979,229.283,197.362
0.312,25.084,1.983,1.983,198.017,229.326,197.395
0.313,25.136,1.979,1.979,198.045,229.359,197.422
0.314,25.169,1.973,1.972,198.062,229.382,197.441
0.315,25.183,1.966,1.963,198.065,229.392,197.449
0.317,25.194,1.958,1.953,198.054,229.391,197.447
0.318,25.218,1.948,1.943,198.034,229.383,197.438
0.319,25.248,1.939,1.932,198.009,229.371,197.425
0.321,25.279,1.929,1.923,197.985,229.359,197.410
0.322,25.304,1.919,1.915,197.966,229.351,197.397
0.323,25.316,1.910,1.911,197.957,229.350,197.389
0.325,25.328,1.902,1.909,197.962,229.361,197.389
0.326,25.366,1.896,1.913,197.988,229.387,197.399
0.327,25.437,1.893,1.921,198.039,229.431,197.423
0.329,25.550,1.894,1.936,198.119,229.498,197.464
0.330,25.708,1.900,1.959,198.232,229.591,197.524
0.331,25.908,1.912,1.990,198.375,229.707,197.602
0.332,26.140,1.931,2.030,198.542,229.840,197.692
0.334,26.395,1.959,2.080,198.726,229.987,197.792
0.335,26.665,1.995,2.139,198.921,230.142,197.897
0.336,26.940,2.036,2.205,199.119,230.300,198.003
0.338,27.210,2.079,2.274,199.315,230.455,198.106
0.339,27.468,2.122,2.342,199.501,230.604,198.202
0.340,27.703,2.161,2.405,199.672,230.741,198.287
0.342,27.907,2.194,2.462,199.822,230.862,198.357
0.343,28.071,2.217,2.508,199.942,230.960,198.409
0.344,28.192,2.229,2.539,200.032,231.035,198.440
0.346,28.274,2.229,2.556,200.093,231.088,198.454
0.347,28.325,2.221,2.561,200.131,231.122,198.453
0.348,28.353,2.208,2.557,200.147,231.141,198.439
0.349,28.376,2.192,2.544,200.147,231.145,198.417
0.351,28.409,2.177,2.525,200.133,231.139,198.388
0.352,28.452,2.167,2.503,200.109,231.124,198.355
0.353,28.502,2.163,2.480,200.079,231.104,198.321
0.355,28.554,2.168,2.457,200.046,231.080,198.289
0.356,28.602,2.181,2.436,200.014,231.056,198.261
0.357,28.643,2.198,2.418,199.986,231.034,198.241
0.359,28.674,2.217,2.402,199.965,231.016,198.226
0.360,28.696,2.234,2.391,199.953,231.001,198.217
0.361,28.707,2.245,2.384,199.951,230.992,198.210
0.363,28.719,2.248,2.383,199.961,230.990,198.205
0.364,28.744,2.241,2.389,199.985,230.995,198.200
0.365,28.787,2.220,2.401,200.026,231.008,198.193
0.366,28.851,2.188,2.423,200.084,231.030,198.183
0.368,28.938,2.149,2.454,200.163,231.063,198.167
0.369,29.049,2.105,2.498,200.263,231.108,198.146
0.370,29.189,2.059,2.554,200.387,231.165,198.116
0.372,29.355,2.014,2.626,200.534,231.233,198.078
0.373,29.543,1.972,2.713,200.699,231.311,198.033
0.374,29.748,1.936,2.818,200.878,231.396,197.982
0.376,29.963,1.908,2.938,201.066,231.485,197.927
0.377,30.184,1.887,3.066,201.258,231.576,197.869
0.378,30.404,1.871,3.195,201.451,231.667,197.810
0.380,30.620,1.861,3.318,201.638,231.754,197.750
0.381,30.824,1.855,3.427,201.816,231.836,197.691
0.382,31.013,1.853,3.517,201.981,231.910,197.635
0.384,31.180,1.854,3.579,202.127,231.973,197.582
0.385,31.322,1.858,3.607,202.251,232.023,197.535
0.386,31.441,1.863,3.604,202.354,232.062,197.492
0.387,31.541,1.870,3.572,202.441,232.092,197.453
0.389,31.626,1.878,3.519,202.515,232.115,197.416
0.390,31.700,1.888,3.449,202.578,232.133,197.382
0.391,31.767,1.899,3.366,202.634,232.149,197.349
0.393,31.831,1.911,3.277,202.686,232.163,197.316
0.394,31.895,1.924,3.186,202.738,232.180,197.283
0.395,31.962,1.937,3.098,202.793,232.199,197.248
0.397,32.038,1.950,3.012,202.853,232.225,197.211
0.398,32.125,1.964,2.929,202.923,232.259,197.171
0.399,32.225,1.979,2.849,203.004,232.300,197.129
0.401,32.335,1.993,2.770,203.093,232.348,197.085
0.402,32.453,2.008,2.694,203.189,232.401,197.041
0.403,32.576,2.024,2.619,203.291,232.456,196.999
0.404,32.703,2.039,2.545,203.396,232.513,196.960
0.406,32.829,2.055,2.473,203.505,232.569,196.925
0.407,32.955,2.071,2.404,203.614,232.623,196.896
0.408,33.076,2.088,2.341,203.722,232.672,196.873
0.410,33.191,2.105,2.285,203.828,232.716,196.860
0.411,33.300,2.124,2.238,203.930,232.753,196.856
0.412,33.402,2.145,2.203,204.028,232.781,196.863
0.414,33.500,2.166,2.181,204.122,232.801,196.880
0.415,33.597,2.190,2.173,204.215,232.815,196.907
0.416,33.697,2.216,2.181,204.307,232.825,196.942
0.418,33.801,2.246,2.202,204.403,232.833,196.984
0.419,33.911,2.279,2.236,204.502,232.839,197.032
0.420,34.030,2.317,2.280,204.607,232.846,197.085
0.421,34.157,2.360,2.334,204.720,232.855,197.143
0.423,34.295,2.409,2.396,204.843,232.868,197.204
0.424,34.445,2.466,2.465,204.977,232.887,197.268
0.425,34.608,2.530,2.539,205.125,232.913,197.333
0.427,34.783,2.600,2.617,205.285,232.945,197.398
0.428,34.967,2.674,2.698,205.452,232.984,197.463
0.429,35.155,2.751,2.779,205.623,233.027,197.527
0.431,35.342,2.829,2.859,205.793,233.073,197.590
0.432,35.525,2.906,2.937,205.959,233.121,197.651
0.433,35.699,2.980,3.011,206.116,233.169,197.709
0.435,35.860,3.049,3.079,206.259,233.217,197.764
0.436,36.003,3.113,3.141,206.385,233.262,197.815
0.437,36.124,3.169,3.196,206.489,233.304,197.861
0.438,36.220,3.219,3.245,206.568,233.341,197.902
0.440,36.290,3.261,3.287,206.619,233.372,197.937
0.441,36.337,3.296,3.324,206.646,233.397,197.967
0.442,36.370,3.323,3.356,206.657,233.416,197.992
0.444,36.395,3.342,3.382,206.655,233.429,198.012
0.445,36.414,3.352,3.403,206.648,233.436,198.029
0.446,36.429,3.355,3.420,206.640,233.437,198.042
0.448,36.441,3.354,3.437,206.639,233.432,198.052
0.449,36.458,3.352,3.454,206.648,233.420,198.060
0.450,36.491,3.353,3.475,206.675,233.402,198.066
0.452,36.547,3.360,3.502,206.726,233.378,198.070
0.453,36.631,3.376,3.537,206.804,233.348,198.073
0.454,36.743,3.405,3.584,206.911,233.313,198.076
0.455,36.878,3.449,3.643,207.040,233.274,198.079
0.457,37.030,3.507,3.713,207.187,233.234,198.083
0.458,37.194,3.574,3.790,207.346,233.195,198.088
0.459,37.366,3.648,3.868,207.513,233.158,198.095
0.461,37.538,3.724,3.943,207.682,233.124,198.105
0.462,37.707,3.798,4.012,207.848,233.097,198.118
0.463,37.868,3.867,4.068,208.007,233.078,198.134
0.465,38.016,3.926,4.109,208.153,233.068,198.155
0.466,38.147,3.972,4.130,208.281,233.070,198.181
0.467,38.259,4.008,4.135,208.388,233.084,198.213
0.469,38.358,4.033,4.128,208.476,233.112,198.250
0.470,38.450,4.051,4.115,208.547,233.151,198.292
0.471,38.540,4.063,4.099,208.604,233.203,198.339
0.473,38.635,4.071,4.086,208.650,233.267,198.392
0.474,38.737,4.077,4.079,208.687,233.342,198.450
0.475,38.848,4.082,4.083,208.717,233.428,198.513
0.476,38.970,4.089,4.101,208.744,233.526,198.581
0.478,39.103,4.098,4.129,208.770,233.634,198.654
0.479,39.247,4.108,4.165,208.797,233.752,198.732
0.480,39.402,4.120,4.206,208.828,233.881,198.814
0.482,39.567,4.135,4.247,208.863,234.016,198.900
0.483,39.735,4.152,4.288,208.899,234.155,198.988
0.484,39.904,4.172,4.323,208.936,234.294,199.076
0.486,40.068,4.196,4.350,208.971,234.429,199.163
0.487,40.224,4.222,4.369,209.003,234.556,199.247
0.488,40.366,4.249,4.381,209.030,234.671,199.326
0.490,40.491,4.276,4.385,209.051,234.771,199.399
0.491,40.595,4.300,4.383,209.063,234.852,199.464
0.492,40.675,4.321,4.376,209.064,234.909,199.519
0.493,40.729,4.336,4.364,209.055,234.939,199.563
0.495,40.768,4.345,4.348,209.033,234.942,199.595
0.496,40.807,4.347,4.330,209.005,234.926,199.616
0.497,40.850,4.342,4.312,208.975,234.898,199.629
0.499,40.892,4.333,4.295,208.947,234.867,199.635
0.500,40.925,4.324,4.283,208.927,234.841,199.635
0.501,40.939,4.315,4.278,208.920,234.828,199.632
0.503,40.954,4.311,4.282,208.931,234.837,199.627
0.504,41.006,4.313,4.298,208.964,234.876,199.621
0.505,41.104,4.325,4.328,209.025,234.954,199.617
0.507,41.259,4.347,4.374,209.118,235.077,199.616
0.508,41.479,4.382,4.435,209.247,235.255,199.620
0.509,41.757,4.428,4.509,209.410,235.481,199.628
0.510,42.083,4.487,4.595,209.599,235.745,199.639
0.512,42.443,4.559,4.692,209.808,236.038,199.653
0.513,42.825,4.644,4.798,210.030,236.350,199.667
0.514,43.218,4.743,4.912,210.257,236.669,199.682
0.516,43.608,4.856,5.032,210.484,236.986,199.695
0.517,43.983,4.981,5.155,210.704,237.290,199.707
0.518,44.332,5.112,5.279,210.908,237.572,199.715
0.520,44.641,5.245,5.400,211.092,237.821,199.718
0.521,44.899,5.373,5.514,211.248,238.027,199.716
0.522,45.100,5.492,5.618,211.372,238.185,199.708
0.524,45.250,5.595,5.708,211.467,238.300,199.696
0.525,45.355,5.678,5.781,211.537,238.377,199.682
0.526,45.422,5.734,5.834,211.583,238.423,199.667
0.527,45.457,5.767,5.867,211.609,238.443,199.652
0.529,45.472,5.778,5.883,211.617,238.443,199.641
0.530,45.490,5.772,5.887,211.611,238.427,199.633
0.531,45.520,5.754,5.882,211.594,238.403,199.632
0.533,45.559,5.726,5.871,211.568,238.375,199.638
