"T","Distance","Radius","FreeRadius","X","Y","Z"
0.000,0.000,2.734,2.734,221.363,215.524,223.817
0.001,0.413,2.833,2.833,221.046,215.789,223.819
0.003,0.823,2.933,2.933,220.732,216.052,223.821
0.004,1.224,3.033,3.033,220.425,216.310,223.823
0.006,1.613,3.135,3.135,220.127,216.559,223.824
0.007,1.986,3.239,3.239,219.841,216.799,223.824
0.008,2.338,3.345,3.345,219.571,217.026,223.824
0.010,2.666,3.454,3.454,219.321,217.238,223.822
0.011,2.966,3.567,3.567,219.092,217.431,223.819
0.013,3.233,3.680,3.680,218.889,217.604,223.815
0.014,3.463,3.789,3.789,218.714,217.754,223.810
0.015,3.653,3.893,3.893,218.571,217.879,223.803
0.017,3.802,3.985,3.985,218.459,217.977,223.794
0.018,3.914,4.064,4.064,218.377,218.052,223.784
0.020,3.993,4.125,4.125,218.320,218.106,223.773
0.021,4.045,4.165,4.165,218.284,218.141,223.762
0.022,4.074,4.185,4.185,218.265,218.161,223.751
0.024,4.087,4.190,4.190,218.262,218.168,223.741
0.025,4.099,4.184,4.184,218.268,218.166,223.731
0.027,4.118,4.172,4.172,218.282,218.155,223.724
0.028,4.141,4.159,4.159,218.299,218.140,223.718
0.029,4.165,4.149,4.149,218.316,218.123,223.715
0.031,4.186,4.147,4.147,218.329,218.107,223.715
0.032,4.204,4.155,4.155,218.337,218.092,223.718
0.034,4.218,4.169,4.169,218.342,218.080,223.723
0.035,4.229,4.187,4.187,218.344,218.071,223.730
0.036,4.239,4.207,4.207,218.344,218.067,223.739
0.038,4.250,4.225,4.225,218.341,218.067,223.750
0.039,4.264,4.239,4.239,218.338,218.072,223.762
0.041,4.281,4.245,4.245,218.334,218.084,223.775
0.042,4.304,4.243,4.243,218.331,218.102,223.788
0.043,4.334,4.234,4.234,218.329,218.128,223.802
0.045,4.370,4.220,4.220,218.328,218.162,223.815
0.046,4.415,4.202,4.202,218.330,218.205,223.828
0.048,4.466,4.184,4.184,218.334,218.255,223.840
0.049,4.523,4.167,4.167,218.339,218.310,223.852
0.050,4.585,4.154,4.154,218.347,218.370,223.862
0.052,4.648,4.145,4.145,218.355,218.433,223.872
0.053,4.714,4.141,4.141,218.365,218.496,223.880
0.055,4.778,4.139,4.139,218.375,218.560,223.887
0.056,4.841,4.140,4.140,218.386,218.622,223.893
0.058,4.901,4.141,4.141,218.397,218.680,223.896
0.059,4.956,4.142,4.142,218.409,218.734,223.898
0.060,5.005,4.141,4.141,218.420,218.781,223.898
0.062,5.047,4.138,4.138,218.431,218.823,223.897
0.063,5.086,4.132,4.132,218.441,218.860,223.895
0.065,5.122,4.125,4.125,218.449,218.895,223.895
0.066,5.158,4.118,4.118,218.456,218.930,223.898
0.067,5.195,4.112,4.112,218.461,218.967,223.905
0.069,5.238,4.107,4.107,218.462,219.007,223.918
0.070,5.289,4.105,4.105,218.461,219.054,223.939
0.072,5.351,4.107,4.107,218.456,219.109,223.968
0.073,5.428,4.113,4.113,218.448,219.174,224.007
0.074,5.521,4.122,4.122,218.435,219.251,224.058
0.076,5.633,4.136,4.136,218.417,219.342,224.121
0.077,5.762,4.153,4.153,218.395,219.445,224.196
0.079,5.904,4.174,4.174,218.371,219.557,224.279
0.080,6.055,4.198,4.198,218.345,219.676,224.368
0.081,6.210,4.225,4.225,218.318,219.798,224.459
0.083,6.365,4.255,4.255,218.292,219.921,224.551
0.084,6.516,4.287,4.287,218.268,220.041,224.640
0.086,6.659,4.319,4.319,218.247,220.155,224.723
0.087,6.790,4.351,4.351,218.231,220.261,224.798
0.088,6.904,4.380,4.380,218.219,220.356,224.861
0.090,6.999,4.408,4.408,218.215,220.436,224.911
0.091,7.072,4.431,4.431,218.217,220.500,224.946
0.093,7.126,4.449,4.449,218.225,220.549,224.967
0.094,7.165,4.464,4.464,218.236,220.585,224.979
0.095,7.194,4.474,4.474,218.249,220.610,224.983
0.097,7.215,4.481,4.481,218.262,220.627,224.982
0.098,7.229,4.485,4.485,218.272,220.636,224.980
0.100,7.237,4.487,4.487,218.279,220.639,224.979
0.101,7.239,4.486,4.486,218.280,220.640,224.981
0.102,7.251,4.483,4.483,218.273,220.639,224.991
0.104,7.276,4.480,4.480,218.256,220.638,225.009
0.105,7.318,4.478,4.478,218.228,220.640,225.040
0.107,7.378,4.477,4.477,218.188,220.645,225.085
0.108,7.451,4.479,4.479,218.141,220.653,225.141
0.109,7.537,4.486,4.486,218.089,220.666,225.207
0.111,7.632,4.498,4.498,218.034,220.682,225.284
0.112,7.735,4.515,4.515,217.980,220.704,225.368
0.114,7.843,4.538,4.538,217.929,220.730,225.460
0.115,7.954,4.562,4.562,217.885,220.761,225.557
0.116,8.068,4.586,4.586,217.851,220.797,225.659
0.118,8.183,4.606,4.606,217.828,220.839,225.764
0.119,8.301,4.621,4.621,217.821,220.887,225.872
0.121,8.423,4.626,4.626,217.831,220.941,225.980
0.122,8.550,4.620,4.620,217.858,221.000,226.089
0.123,8.683,4.603,4.603,217.900,221.063,226.199
0.125,8.823,4.578,4.578,217.954,221.129,226.310
0.126,8.968,4.547,4.547,218.019,221.198,226.420
0.128,9.118,4.515,4.515,218.092,221.268,226.531
0.129,9.271,4.484,4.484,218.172,221.337,226.641
0.130,9.426,4.456,4.456,218.256,221.406,226.752
0.132,9.581,4.436,4.436,218.342,221.473,226.862
0.133,9.735,4.423,4.423,218.429,221.537,226.972
0.135,9.886,4.416,4.416,218.513,221.597,227.082
0.136,10.033,4.414,4.414,218.594,221.653,227.190
0.137,10.175,4.413,4.413,218.670,221.707,227.297
0.139,10.312,4.413,4.413,218.738,221.763,227.402
0.140,10.444,4.411,4.411,218.798,221.822,227.505
0.142,10.572,4.406,4.406,218.847,221.887,227.604
0.143,10.698,4.395,4.395,218.884,221.961,227.698
0.144,10.825,4.381,4.381,218.907,222.047,227.789
0.146,10.956,4.364,4.364,218.914,222.147,227.873
0.147,11.097,4.346,4.346,218.904,222.263,227.952
0.149,11.254,4.327,4.327,218.875,222.400,228.024
0.150,11.432,4.308,4.308,218.825,222.558,228.089
0.151,11.631,4.291,4.291,218.757,222.736,228.146
0.153,11.848,4.276,4.276,218.672,222.929,228.198
0.154,12.078,4.263,4.263,218.575,223.132,228.243
0.156,12.314,4.252,4.252,218.470,223.340,228.283
0.157,12.553,4.241,4.241,218.360,223.548,228.318
0.158,12.786,4.231,4.231,218.248,223.751,228.350
0.160,13.010,4.221,4.221,218.139,223.944,228.379
0.161,13.217,4.210,4.210,218.035,224.121,228.405
0.163,13.401,4.197,4.197,217.941,224.278,228.429
0.164,13.557,4.184,4.184,217.860,224.409,228.453
0.165,13.680,4.171,4.171,217.795,224.511,228.476
0.167,13.774,4.158,4.158,217.744,224.586,228.498
0.168,13.843,4.147,4.147,217.706,224.640,228.520
0.170,13.893,4.139,4.139,217.679,224.676,228.542
0.171,13.930,4.133,4.133,217.659,224.699,228.564
0.173,13.959,4.133,4.133,217.646,224.713,228.585
0.174,13.985,4.136,4.136,217.636,224.724,228.606
0.175,14.010,4.141,4.141,217.628,224.736,228.627
0.177,14.038,4.148,4.148,217.619,224.753,228.647
0.178,14.073,4.155,4.155,217.608,224.781,228.667
0.180,14.123,4.160,4.160,217.591,224.823,228.686
0.181,14.190,4.163,4.163,217.568,224.882,228.706
0.182,14.276,4.162,4.162,217.538,224.960,228.729
0.184,14.384,4.158,4.158,217.500,225.057,228.758
0.185,14.514,4.154,4.154,217.455,225.173,228.795
0.187,14.668,4.155,4.155,217.401,225.308,228.844
0.188,14.846,4.163,4.163,217.338,225.464,228.906
0.189,15.052,4.183,4.184,217.267,225.639,228.984
0.191,15.285,4.219,4.219,217.186,225.836,229.082
0.192,15.549,4.275,4.275,217.095,226.053,229.201
0.194,15.845,4.351,4.351,216.994,226.292,229.344
0.195,16.176,4.447,4.447,216.883,226.552,229.514
0.196,16.536,4.558,4.558,216.762,226.831,229.708
0.198,16.917,4.682,4.682,216.636,227.121,229.919
0.199,17.310,4.815,4.815,216.505,227.417,230.143
0.201,17.706,4.954,4.954,216.374,227.713,230.371
0.202,18.097,5.096,5.096,216.244,228.002,230.600
0.203,18.472,5.239,5.239,216.119,228.279,230.821
0.205,18.825,5.377,5.377,216.001,228.537,231.030
0.206,19.145,5.509,5.509,215.892,228.770,231.220
0.208,19.423,5.632,5.632,215.796,228.973,231.384
0.209,19.651,5.742,5.742,215.716,229.139,231.518
0.210,19.822,5.836,5.836,215.652,229.264,231.616
0.212,19.942,5.911,5.911,215.602,229.351,231.683
0.213,20.021,5.964,5.964,215.563,229.407,231.723
0.215,20.068,5.998,5.998,215.532,229.436,231.741
0.216,20.097,6.015,6.015,215.504,229.445,231.743
0.217,20.126,6.021,6.021,215.477,229.439,231.733
0.219,20.163,6.020,6.020,215.447,229.424,231.718
0.220,20.208,6.015,6.015,215.411,229.404,231.702
0.222,20.259,6.011,6.011,215.364,229.387,231.690
0.223,20.320,6.011,6.011,215.304,229.376,231.687
0.224,20.398,6.017,6.017,215.228,229.378,231.699
0.226,20.498,6.030,6.031,215.133,229.395,231.728
0.227,20.618,6.050,6.050,215.025,229.425,231.771
0.229,20.754,6.075,6.075,214.907,229.466,231.825
0.230,20.903,6.106,6.107,214.781,229.515,231.888
0.231,21.059,6.144,6.144,214.652,229.570,231.957
0.233,21.218,6.187,6.187,214.524,229.629,232.028
0.234,21.373,6.235,6.235,214.400,229.689,232.101
0.236,21.522,6.285,6.285,214.283,229.748,232.171
0.237,21.658,6.336,6.335,214.177,229.804,232.235
0.238,21.776,6.385,6.384,214.086,229.854,232.292
0.240,21.873,6.429,6.428,214.013,229.896,232.339
0.241,21.947,6.466,6.465,213.958,229.931,232.375
0.243,22.003,6.493,6.493,213.918,229.960,232.402
0.244,22.044,6.510,6.511,213.893,229.985,232.422
0.245,22.073,6.517,6.519,213.879,230.006,232.435
0.247,22.095,6.518,6.521,213.874,230.026,232.444
0.248,22.117,6.513,6.517,213.878,230.047,232.450
0.250,22.140,6.505,6.509,213.887,230.068,232.453
0.251,22.169,6.497,6.499,213.899,230.093,232.456
0.252,22.202,6.489,6.489,213.913,230.123,232.460
0.254,22.241,6.483,6.480,213.927,230.159,232.467
0.255,22.286,6.479,6.472,213.938,230.202,232.476
0.257,22.337,6.477,6.467,213.947,230.251,232.489
0.258,22.393,6.475,6.462,213.955,230.304,232.504
0.259,22.451,6.472,6.459,213.962,230.359,232.521
0.261,22.510,6.468,6.458,213.967,230.415,232.539
0.262,22.569,6.461,6.458,213.972,230.471,232.558
0.264,22.626,6.450,6.460,213.978,230.524,232.577
0.265,22.678,6.437,6.462,213.983,230.573,232.595
0.266,22.725,6.423,6.466,213.989,230.616,232.612
0.268,22.765,6.407,6.470,213.996,230.652,232.628
0.269,22.796,6.393,6.474,214.004,230.679,232.642
0.271,22.819,6.381,6.478,214.014,230.697,232.653
0.272,22.836,6.372,6.482,214.023,230.706,232.662
0.273,22.847,6.367,6.485,214.032,230.710,232.668
0.275,22.856,6.367,6.488,214.040,230.708,232.671
0.276,22.863,6.370,6.489,214.045,230.703,232.672
0.278,22.871,6.376,6.489,214.047,230.695,232.671
0.279,22.880,6.383,6.487,214.044,230.687,232.667
0.281,22.893,6.391,6.484,214.036,230.680,232.660
0.282,22.910,6.398,6.480,214.022,230.675,232.651
0.283,22.935,6.404,6.473,214.001,230.673,232.639
0.285,22.967,6.408,6.465,213.973,230.676,232.625
0.286,23.006,6.411,6.456,213.937,230.684,232.609
0.288,23.051,6.412,6.446,213.897,230.698,232.594
0.289,23.100,6.412,6.435,213.854,230.717,232.581
0.290,23.151,6.411,6.425,213.811,230.741,232.571
0.292,23.203,6.410,6.416,213.768,230.771,232.566
0.293,23.257,6.409,6.408,213.728,230.807,232.568
0.295,23.312,6.407,6.401,213.693,230.848,232.577
0.296,23.370,6.403,6.394,213.665,230.894,232.597
0.297,23.434,6.397,6.386,213.645,230.947,232.628
0.299,23.508,6.385,6.374,213.636,231.005,232.673
0.300,23.594,6.367,6.358,213.638,231.069,232.731
0.302,23.695,6.341,6.335,213.649,231.139,232.802
0.303,23.809,6.305,6.305,213.668,231.214,232.886
0.304,23.937,6.259,6.265,213.692,231.296,232.982
0.306,24.077,6.203,6.218,213.720,231.383,233.088
0.307,24.228,6.140,6.165,213.748,231.476,233.203
0.309,24.389,6.072,6.106,213.775,231.575,233.327
0.310,24.559,6.001,6.044,213.799,231.680,233.460
0.311,24.738,5.929,5.980,213.817,231.790,233.599
0.313,24.924,5.859,5.916,213.828,231.907,233.744
0.314,25.118,5.792,5.853,213.828,232.029,233.894
0.316,25.317,5.730,5.792,213.820,232.156,234.047
0.317,25.519,5.672,5.733,213.802,232.285,234.201
0.318,25.720,5.618,5.679,213.778,232.414,234.354
0.320,25.917,5.569,5.629,213.750,232.540,234.502
0.321,26.105,5.524,5.584,213.717,232.662,234.643
0.323,26.283,5.483,5.544,213.683,232.775,234.775
0.324,26.445,5.448,5.512,213.649,232.879,234.895
0.325,26.588,5.417,5.486,213.616,232.970,235.000
0.327,26.709,5.390,5.466,213.587,233.046,235.089
0.328,26.803,5.369,5.452,213.562,233.105,235.158
0.330,26.868,5.353,5.443,213.543,233.145,235.206
0.331,26.907,5.342,5.438,213.531,233.168,235.235
0.332,26.925,5.336,5.437,213.524,233.177,235.249
0.334,26.929,5.335,5.439,213.523,233.176,235.252
0.335,26.938,5.339,5.444,213.526,233.169,235.249
0.337,26.952,5.345,5.452,213.534,233.158,235.243
0.338,26.968,5.352,5.460,213.545,233.147,235.239
0.339,26.985,5.356,5.470,213.560,233.139,235.240
0.341,27.005,5.356,5.480,213.577,233.139,235.251
0.342,27.038,5.350,5.489,213.597,233.148,235.275
0.344,27.091,5.335,5.497,213.618,233.172,235.317
0.345,27.167,5.310,5.504,213.641,233.210,235.378
0.346,27.264,5.276,5.507,213.666,233.262,235.457
0.348,27.379,5.236,5.507,213.693,233.324,235.550
0.349,27.509,5.191,5.501,213.722,233.395,235.655
0.351,27.649,5.145,5.489,213.752,233.471,235.768
0.352,27.797,5.097,5.469,213.786,233.551,235.888
0.353,27.948,5.051,5.441,213.822,233.632,236.010
0.355,28.099,5.009,5.403,213.860,233.711,236.133
0.356,28.246,4.971,5.359,213.902,233.785,236.254
0.358,28.387,4.937,5.312,213.946,233.853,236.369
0.359,28.519,4.908,5.265,213.994,233.912,236.476
0.360,28.640,4.885,5.223,214.045,233.961,236.574
0.362,28.751,4.867,5.188,214.098,234.000,236.664
0.363,28.855,4.855,5.165,214.153,234.028,236.747
0.365,28.951,4.849,5.156,214.209,234.046,236.823
0.366,29.042,4.849,5.160,214.266,234.054,236.894
0.367,29.128,4.853,5.172,214.322,234.051,236.960
0.369,29.212,4.859,5.188,214.377,234.037,237.021
0.370,29.295,4.865,5.203,214.431,234.013,237.079
0.372,29.378,4.871,5.213,214.482,233.978,237.135
0.373,29.464,4.874,5.214,214.531,233.932,237.188
0.374,29.553,4.872,5.200,214.576,233.876,237.241
0.376,29.646,4.865,5.170,214.617,233.815,237.297
0.377,29.742,4.850,5.125,214.655,233.754,237.361
0.379,29.840,4.824,5.064,214.687,233.699,237.436
0.380,29.945,4.786,4.989,214.715,233.657,237.527
0.381,30.061,4.734,4.899,214.738,233.632,237.639
0.383,30.199,4.664,4.795,214.755,233.632,237.776
0.384,30.368,4.576,4.678,214.766,233.661,237.942
0.386,30.578,4.471,4.551,214.771,233.726,238.142
0.387,30.838,4.355,4.420,214.769,233.833,238.379
0.388,31.157,4.237,4.293,214.761,233.987,238.658
0.390,31.537,4.124,4.178,214.746,234.188,238.980
0.391,31.965,4.024,4.082,214.726,234.428,239.334
0.393,32.430,3.944,4.012,214.703,234.697,239.712
0.394,32.919,3.893,3.976,214.678,234.986,240.106
0.396,33.417,3.874,3.978,214.653,235.284,240.505
0.397,33.914,3.882,4.011,214.630,235.582,240.901
0.398,34.394,3.912,4.068,214.610,235.871,241.284
0.400,34.845,3.956,4.139,214.596,236.141,241.645
0.401,35.255,4.010,4.218,214.588,236.382,241.976
0.403,35.609,4.065,4.296,214.588,236.585,242.267
0.404,35.897,4.116,4.366,214.599,236.741,242.509
0.405,36.121,4.157,4.419,214.619,236.850,242.704
0.407,36.291,4.189,4.458,214.647,236.919,242.856
0.408,36.417,4.213,4.484,214.681,236.956,242.971
0.410,36.511,4.231,4.500,214.721,236.966,243.057
0.411,36.586,4.244,4.509,214.764,236.958,243.117
0.412,36.651,4.255,4.514,214.809,236.937,243.159
0.414,36.712,4.264,4.516,214.855,236.911,243.188
0.415,36.767,4.275,4.518,214.900,236.886,243.211
0.417,36.817,4.287,4.525,214.942,236.869,243.232
0.418,36.864,4.301,4.538,214.980,236.868,243.258
0.419,36.916,4.318,4.561,215.013,236.887,243.294
0.421,36.982,4.338,4.597,215.041,236.926,243.340
0.422,37.065,4.363,4.649,215.065,236.982,243.395
0.424,37.163,4.392,4.721,215.085,237.054,243.459
0.425,37.276,4.426,4.815,215.103,237.140,243.531
0.426,37.403,4.465,4.929,215.118,237.236,243.611
0.428,37.541,4.510,5.055,215.131,237.342,243.699
0.429,37.688,4.559,5.185,215.143,237.456,243.793
0.431,37.844,4.613,5.311,215.155,237.574,243.892
0.432,38.005,4.672,5.425,215.166,237.695,243.998
0.433,38.170,4.734,5.520,215.178,237.817,244.108
0.435,38.336,4.801,5.587,215.192,237.938,244.222
0.436,38.502,4.870,5.624,215.206,238.057,244.336
0.438,38.663,4.940,5.634,215.220,238.171,244.448
0.439,38.816,5.007,5.625,215.235,238.279,244.557
0.440,38.959,5.069,5.601,215.250,238.379,244.657
0.442,39.089,5.123,5.568,215.265,238.470,244.749
0.443,39.201,5.167,5.532,215.280,238.550,244.827
0.445,39.295,5.197,5.498,215.295,238.616,244.891
0.446,39.365,5.213,5.471,215.309,238.668,244.937
0.447,39.411,5.217,5.449,215.322,238.704,244.962
0.449,39.433,5.212,5.433,215.334,238.722,244.965
0.450,39.452,5.200,5.421,215.344,238.725,244.949
0.452,39.483,5.186,5.411,215.353,238.717,244.920
0.453,39.522,5.171,5.403,215.360,238.701,244.886
0.454,39.560,5.159,5.396,215.364,238.683,244.852
0.456,39.592,5.153,5.389,215.364,238.666,244.825
0.457,39.610,5.154,5.383,215.362,238.654,244.812
0.459,39.619,5.163,5.380,215.355,238.652,244.819
0.460,39.656,5.180,5.384,215.345,238.664,244.853
0.461,39.731,5.206,5.396,215.329,238.693,244.919
0.463,39.850,5.242,5.418,215.308,238.744,245.025
0.464,40.019,5.289,5.452,215.283,238.820,245.173
0.466,40.229,5.348,5.501,215.252,238.915,245.358
0.467,40.470,5.415,5.561,215.219,239.024,245.570
0.468,40.732,5.487,5.629,215.183,239.143,245.802
0.470,41.006,5.560,5.699,215.146,239.266,246.044
0.471,41.281,5.631,5.767,215.109,239.387,246.288
0.473,41.548,5.695,5.828,215.073,239.501,246.526
0.474,41.796,5.747,5.877,215.039,239.603,246.749
0.475,42.015,5.786,5.910,215.008,239.688,246.950
0.477,42.197,5.810,5.926,214.981,239.750,247.119
0.478,42.333,5.822,5.930,214.959,239.784,247.248
0.480,42.422,5.827,5.924,214.943,239.791,247.336
0.481,42.476,5.827,5.914,214.931,239.778,247.387
0.482,42.510,5.828,5.903,214.922,239.753,247.407
0.484,42.540,5.831,5.894,214.917,239.723,247.403
0.485,42.576,5.840,5.893,214.913,239.697,247.379
0.487,42.617,5.857,5.899,214.911,239.682,247.341
0.488,42.663,5.878,5.910,214.908,239.685,247.295
0.489,42.720,5.899,5.922,214.906,239.715,247.246
0.491,42.799,5.916,5.931,214.902,239.779,247.199
0.492,42.911,5.924,5.933,214.895,239.884,247.162
0.494,43.066,5.921,5.924,214.886,240.037,247.137
0.495,43.264,5.901,5.901,214.875,240.234,247.127
0.496,43.497,5.863,5.861,214.862,240.467,247.128
0.498,43.758,5.810,5.808,214.849,240.727,247.139
0.499,44.038,5.748,5.745,214.836,241.006,247.159
0.501,44.330,5.680,5.678,214.826,241.297,247.186
0.502,44.625,5.611,5.611,214.818,241.590,247.218
0.504,44.915,5.547,5.547,214.814,241.878,247.253
0.505,45.192,5.491,5.491,214.814,242.153,247.289
0.506,45.448,5.448,5.447,214.821,242.406,247.326
0.508,45.674,5.417,5.414,214.834,242.628,247.361
0.509,45.866,5.395,5.391,214.855,242.817,247.393
0.511,46.027,5.381,5.376,214.881,242.972,247.422
0.512,46.161,5.373,5.367,214.913,243.100,247.449
0.513,46.273,5.367,5.362,214.947,243.203,247.476
0.515,46.367,5.363,5.361,214.984,243.286,247.501
0.516,46.447,5.357,5.362,215.022,243.351,247.527
0.518,46.517,5.350,5.362,215.059,243.404,247.554
0.519,46.579,5.341,5.362,215.094,243.448,247.582
0.520,46.638,5.330,5.360,215.126,243.486,247.611
0.522,46.694,5.317,5.356,215.154,243.524,247.644
0.523,46.751,5.302,5.348,215.175,243.563,247.679
0.525,46.811,5.285,5.335,215.191,243.606,247.718
0.526,46.874,5.267,5.317,215.200,243.652,247.759
0.527,46.938,5.247,5.293,215.204,243.701,247.801
0.529,47.003,5.224,5.265,215.203,243.751,247.843
0.530,47.069,5.198,5.231,215.197,243.801,247.885
0.532,47.135,5.169,5.193,215.186,243.852,247.925
0.533,47.199,5.137,5.151,215.172,243.901,247.963
0.534,47.261,5.100,5.106,215.154,243.949,247.998
0.536,47.320,5.059,5.057,215.132,243.995,248.028
0.537,47.375,5.015,5.008,215.108,244.037,248.054
0.539,47.425,4.969,4.959,215.082,244.076,248.073
0.540,47.471,4.925,4.914,215.055,244.110,248.088
0.541,47.511,4.887,4.876,215.029,244.139,248.098
0.543,47.544,4.856,4.847,215.008,244.163,248.105
0.544,47.569,4.836,4.831,214.992,244.181,248.110
0.546,47.584,4.830,4.830,214.983,244.193,248.115
0.547,47.591,4.839,4.846,214.985,244.198,248.119
0.548,47.606,4.861,4.876,214.998,244.196,248.124
0.550,47.636,4.893,4.916,215.026,244.187,248.131
0.551,47.684,4.933,4.964,215.070,244.170,248.141
0.553,47.753,4.976,5.015,215.132,244.144,248.156
0.554,47.842,5.021,5.067,215.213,244.111,248.176
0.555,47.946,5.064,5.115,215.308,244.077,248.202
0.557,48.062,5.103,5.157,215.414,244.045,248.235
0.558,48.184,5.133,5.190,215.526,244.023,248.276
0.560,48.310,5.153,5.210,215.642,244.015,248.328
0.561,48.440,5.159,5.216,215.756,244.026,248.389
0.562,48.576,5.149,5.203,215.864,244.062,248.463
0.564,48.724,5.119,5.169,215.964,244.128,248.549
0.565,48.890,5.067,5.112,216.050,244.230,248.649
0.567,49.086,4.990,5.029,216.118,244.373,248.763
0.568,49.321,4.891,4.925,216.165,244.563,248.894
0.569,49.596,4.780,4.806,216.190,244.796,249.039
0.571,49.909,4.663,4.682,216.195,245.067,249.195
0.572,50.253,4.548,4.561,216.181,245.369,249.359
