"T","Distance","Radius","FreeRadius","X","Y","Z"
0.000,0.000,1.787,1.947,75.910,-51.115,-3.422
0.001,0.099,1.804,1.974,75.844,-51.182,-3.453
0.003,0.197,1.820,1.999,75.778,-51.249,-3.483
0.004,0.295,1.837,2.024,75.713,-51.314,-3.513
0.005,0.390,1.856,2.048,75.649,-51.379,-3.541
0.007,0.484,1.876,2.070,75.585,-51.442,-3.569
0.008,0.574,1.898,2.091,75.523,-51.503,-3.595
0.010,0.662,1.923,2.108,75.463,-51.562,-3.620
0.011,0.746,1.950,2.124,75.404,-51.617,-3.642
0.012,0.826,1.980,2.137,75.348,-51.670,-3.662
0.014,0.901,2.011,2.148,75.294,-51.719,-3.679
0.015,0.970,2.044,2.159,75.243,-51.764,-3.694
0.016,1.034,2.076,2.170,75.194,-51.804,-3.705
0.018,1.093,2.108,2.182,75.149,-51.840,-3.713
0.019,1.144,2.138,2.196,75.107,-51.870,-3.717
0.021,1.191,2.166,2.212,75.068,-51.896,-3.718
0.022,1.233,2.192,2.232,75.032,-51.917,-3.715
0.023,1.273,2.215,2.254,74.997,-51.935,-3.710
0.025,1.312,2.238,2.279,74.962,-51.951,-3.703
0.026,1.351,2.261,2.305,74.927,-51.965,-3.694
0.027,1.391,2.284,2.332,74.891,-51.979,-3.685
0.029,1.433,2.309,2.360,74.852,-51.994,-3.675
0.030,1.478,2.336,2.388,74.811,-52.009,-3.666
0.032,1.528,2.365,2.416,74.765,-52.027,-3.657
0.033,1.583,2.398,2.444,74.715,-52.048,-3.650
0.034,1.644,2.434,2.472,74.659,-52.073,-3.645
0.036,1.714,2.472,2.502,74.596,-52.103,-3.643
0.037,1.793,2.513,2.534,74.526,-52.138,-3.643
0.038,1.881,2.557,2.568,74.448,-52.180,-3.648
0.040,1.980,2.603,2.606,74.362,-52.228,-3.656
0.041,2.087,2.651,2.647,74.270,-52.281,-3.670
0.043,2.201,2.701,2.693,74.173,-52.338,-3.689
0.044,2.322,2.754,2.742,74.071,-52.398,-3.714
0.045,2.448,2.809,2.796,73.966,-52.460,-3.745
0.047,2.579,2.866,2.854,73.859,-52.524,-3.784
0.048,2.713,2.925,2.916,73.750,-52.588,-3.831
0.049,2.851,2.987,2.982,73.641,-52.652,-3.887
0.051,2.992,3.051,3.052,73.532,-52.715,-3.951
0.052,3.136,3.117,3.126,73.426,-52.776,-4.025
0.053,3.282,3.184,3.203,73.321,-52.834,-4.110
0.055,3.431,3.252,3.282,73.221,-52.888,-4.205
0.056,3.582,3.319,3.362,73.125,-52.937,-4.311
0.058,3.738,3.385,3.441,73.034,-52.982,-4.429
0.059,3.897,3.450,3.520,72.948,-53.024,-4.556
0.060,4.059,3.511,3.598,72.866,-53.065,-4.691
0.062,4.225,3.569,3.672,72.789,-53.105,-4.831
0.063,4.393,3.624,3.744,72.715,-53.146,-4.977
0.064,4.562,3.677,3.812,72.646,-53.191,-5.125
0.066,4.733,3.731,3.878,72.581,-53.239,-5.274
0.067,4.903,3.785,3.941,72.519,-53.293,-5.423
0.069,5.073,3.841,4.001,72.460,-53.354,-5.571
0.070,5.242,3.900,4.058,72.404,-53.423,-5.714
0.071,5.410,3.964,4.113,72.351,-53.502,-5.853
0.073,5.577,4.033,4.165,72.301,-53.592,-5.985
0.074,5.745,4.106,4.217,72.253,-53.694,-6.108
0.075,5.913,4.182,4.268,72.207,-53.811,-6.222
0.077,6.083,4.259,4.321,72.164,-53.938,-6.326
0.078,6.254,4.338,4.375,72.124,-54.074,-6.420
0.080,6.423,4.417,4.432,72.088,-54.216,-6.505
0.081,6.590,4.495,4.494,72.055,-54.361,-6.581
0.082,6.753,4.571,4.559,72.027,-54.507,-6.648
0.084,6.910,4.642,4.625,72.004,-54.651,-6.706
0.085,7.058,4.707,4.689,71.986,-54.790,-6.755
0.086,7.197,4.763,4.748,71.974,-54.922,-6.795
0.088,7.322,4.807,4.796,71.968,-55.043,-6.828
0.089,7.434,4.838,4.832,71.968,-55.151,-6.852
0.091,7.528,4.852,4.851,71.976,-55.244,-6.868
0.092,7.605,4.849,4.851,71.991,-55.319,-6.877
0.093,7.664,4.830,4.834,72.014,-55.373,-6.878
0.095,7.709,4.801,4.805,72.044,-55.406,-6.873
0.096,7.748,4.766,4.771,72.078,-55.422,-6.862
0.097,7.786,4.732,4.735,72.114,-55.424,-6.849
0.099,7.825,4.702,4.704,72.149,-55.415,-6.835
0.100,7.864,4.682,4.683,72.181,-55.398,-6.821
0.102,7.899,4.677,4.677,72.206,-55.377,-6.810
0.103,7.928,4.689,4.688,72.223,-55.354,-6.803
0.104,7.949,4.712,4.711,72.228,-55.333,-6.802
0.106,7.968,4.743,4.741,72.220,-55.318,-6.809
0.107,7.999,4.775,4.774,72.195,-55.311,-6.825
0.108,8.051,4.805,4.804,72.151,-55.315,-6.854
0.110,8.131,4.827,4.826,72.086,-55.335,-6.895
0.111,8.244,4.836,4.836,71.996,-55.372,-6.951
0.112,8.392,4.830,4.830,71.880,-55.430,-7.024
0.114,8.573,4.811,4.812,71.741,-55.506,-7.111
0.115,8.782,4.785,4.785,71.582,-55.598,-7.211
0.117,9.014,4.755,4.755,71.408,-55.703,-7.321
0.118,9.262,4.726,4.726,71.221,-55.818,-7.439
0.119,9.524,4.703,4.703,71.026,-55.940,-7.563
0.121,9.793,4.691,4.691,70.827,-56.067,-7.690
0.122,10.063,4.694,4.694,70.626,-56.196,-7.819
0.123,10.332,4.712,4.712,70.428,-56.323,-7.947
0.125,10.592,4.742,4.742,70.235,-56.447,-8.071
0.126,10.839,4.780,4.780,70.053,-56.564,-8.191
0.128,11.068,4.823,4.823,69.885,-56.671,-8.303
0.129,11.273,4.868,4.868,69.734,-56.766,-8.405
0.130,11.451,4.911,4.911,69.604,-56.846,-8.495
0.132,11.599,4.950,4.950,69.495,-56.910,-8.572
0.133,11.719,4.982,4.982,69.407,-56.960,-8.638
0.134,11.816,5.008,5.008,69.337,-56.997,-8.693
0.136,11.890,5.028,5.028,69.283,-57.023,-8.737
0.137,11.945,5.044,5.044,69.245,-57.038,-8.773
0.139,11.983,5.056,5.056,69.219,-57.045,-8.800
0.140,12.007,5.065,5.065,69.204,-57.046,-8.820
0.141,12.022,5.072,5.072,69.199,-57.040,-8.833
0.143,12.034,5.077,5.077,69.201,-57.031,-8.840
0.144,12.049,5.080,5.080,69.209,-57.019,-8.842
0.145,12.067,5.082,5.082,69.221,-57.006,-8.841
0.147,12.086,5.082,5.082,69.235,-56.993,-8.836
0.148,12.105,5.081,5.081,69.249,-56.983,-8.829
0.150,12.123,5.079,5.079,69.262,-56.975,-8.821
0.151,12.138,5.075,5.075,69.273,-56.970,-8.812
0.152,12.150,5.070,5.070,69.282,-56.968,-8.803
0.154,12.159,5.064,5.064,69.287,-56.969,-8.795
0.155,12.166,5.058,5.058,69.288,-56.972,-8.789
0.156,12.173,5.053,5.053,69.285,-56.978,-8.786
0.158,12.185,5.051,5.051,69.277,-56.986,-8.786
0.159,12.202,5.053,5.053,69.264,-56.996,-8.791
0.160,12.227,5.060,5.060,69.244,-57.007,-8.800
0.162,12.260,5.073,5.073,69.218,-57.020,-8.815
0.163,12.302,5.092,5.092,69.184,-57.035,-8.837
0.165,12.355,5.117,5.117,69.143,-57.051,-8.867
0.166,12.420,5.147,5.147,69.093,-57.067,-8.905
0.167,12.497,5.181,5.181,69.034,-57.085,-8.951
0.169,12.586,5.219,5.219,68.967,-57.103,-9.007
0.170,12.686,5.260,5.260,68.893,-57.121,-9.071
0.171,12.794,5.302,5.302,68.812,-57.138,-9.141
0.173,12.910,5.345,5.345,68.727,-57.155,-9.218
0.174,13.031,5.388,5.388,68.639,-57.171,-9.300
0.176,13.157,5.433,5.433,68.549,-57.185,-9.385
0.177,13.284,5.477,5.477,68.458,-57.198,-9.474
0.178,13.412,5.521,5.521,68.368,-57.208,-9.564
0.180,13.539,5.566,5.566,68.280,-57.215,-9.656
0.181,13.663,5.610,5.610,68.196,-57.219,-9.747
0.182,13.783,5.653,5.653,68.116,-57.219,-9.837
0.184,13.898,5.696,5.696,68.043,-57.215,-9.926
0.185,14.006,5.737,5.737,67.977,-57.207,-10.011
0.187,14.106,5.777,5.777,67.920,-57.195,-10.092
0.188,14.199,5.814,5.814,67.871,-57.178,-10.169
0.189,14.286,5.849,5.849,67.829,-57.158,-10.242
0.191,14.367,5.880,5.880,67.794,-57.135,-10.311
0.192,14.442,5.907,5.907,67.764,-57.110,-10.375
0.193,14.512,5.931,5.931,67.740,-57.083,-10.436
0.195,14.577,5.950,5.950,67.720,-57.056,-10.491
0.196,14.637,5.966,5.966,67.704,-57.030,-10.543
0.198,14.692,5.978,5.979,67.691,-57.004,-10.589
0.199,14.742,5.988,5.988,67.680,-56.979,-10.632
0.200,14.787,5.994,5.994,67.670,-56.957,-10.669
0.202,14.826,5.997,5.997,67.661,-56.938,-10.702
0.203,14.859,5.998,5.998,67.652,-56.922,-10.730
0.204,14.887,5.997,5.997,67.642,-56.911,-10.754
0.206,14.910,5.995,5.995,67.631,-56.904,-10.773
0.207,14.930,5.992,5.992,67.620,-56.901,-10.789
0.209,14.948,5.990,5.989,67.608,-56.900,-10.802
0.210,14.964,5.989,5.988,67.597,-56.901,-10.814
0.211,14.979,5.989,5.988,67.587,-56.904,-10.825
0.213,14.994,5.991,5.991,67.578,-56.908,-10.837
0.214,15.010,5.996,5.997,67.571,-56.911,-10.850
0.215,15.026,6.003,6.004,67.566,-56.914,-10.865
0.217,15.045,6.010,6.012,67.564,-56.915,-10.884
0.218,15.067,6.017,6.019,67.565,-56.914,-10.906
0.219,15.096,6.023,6.025,67.569,-56.909,-10.934
0.221,15.132,6.027,6.028,67.578,-56.901,-10.968
0.222,15.176,6.027,6.027,67.590,-56.888,-11.009
0.224,15.231,6.025,6.022,67.608,-56.871,-11.057
0.225,15.293,6.019,6.015,67.629,-56.850,-11.113
0.226,15.362,6.013,6.006,67.651,-56.828,-11.174
0.228,15.436,6.006,5.998,67.673,-56.806,-11.241
0.229,15.512,6.002,5.993,67.694,-56.788,-11.312
0.230,15.590,6.000,5.993,67.711,-56.773,-11.386
0.232,15.668,6.002,6.000,67.723,-56.765,-11.463
0.233,15.747,6.010,6.015,67.729,-56.766,-11.542
0.235,15.827,6.022,6.036,67.726,-56.777,-11.621
0.236,15.910,6.033,6.058,67.713,-56.800,-11.699
0.237,16.000,6.040,6.076,67.689,-56.838,-11.777
0.239,16.100,6.039,6.085,67.651,-56.892,-11.853
0.240,16.215,6.025,6.081,67.598,-56.964,-11.925
0.241,16.350,5.995,6.057,67.528,-57.056,-11.994
0.243,16.505,5.945,6.009,67.443,-57.169,-12.059
0.244,16.681,5.874,5.936,67.342,-57.299,-12.120
0.246,16.874,5.785,5.843,67.229,-57.445,-12.177
0.247,17.083,5.683,5.735,67.106,-57.605,-12.231
0.248,17.306,5.571,5.619,66.973,-57.776,-12.283
0.250,17.538,5.455,5.501,66.834,-57.956,-12.332
0.251,17.779,5.339,5.386,66.691,-58.144,-12.379
0.252,18.025,5.226,5.281,66.544,-58.336,-12.425
0.254,18.273,5.121,5.189,66.397,-58.530,-12.469
0.255,18.521,5.024,5.112,66.251,-58.725,-12.512
0.257,18.765,4.936,5.047,66.107,-58.918,-12.555
0.258,19.003,4.856,4.992,65.969,-59.108,-12.597
0.259,19.232,4.784,4.944,65.838,-59.291,-12.640
0.261,19.451,4.720,4.903,65.715,-59.466,-12.683
0.262,19.658,4.665,4.865,65.601,-59.634,-12.727
0.263,19.857,4.618,4.829,65.495,-59.796,-12.771
0.265,20.047,4.578,4.794,65.396,-59.952,-12.817
0.266,20.230,4.544,4.759,65.305,-60.104,-12.863
0.267,20.408,4.513,4.722,65.220,-60.253,-12.911
0.269,20.581,4.486,4.683,65.142,-60.399,-12.960
0.270,20.751,4.458,4.641,65.069,-60.544,-13.010
0.272,20.918,4.431,4.594,65.002,-60.688,-13.062
0.273,21.085,4.400,4.543,64.940,-60.833,-13.115
0.274,21.252,4.367,4.488,64.882,-60.980,-13.171
0.276,21.421,4.331,4.429,64.828,-61.130,-13.228
0.277,21.592,4.295,4.370,64.778,-61.283,-13.288
0.278,21.768,4.261,4.313,64.732,-61.440,-13.349
0.280,21.947,4.228,4.261,64.688,-61.602,-13.413
0.281,22.128,4.200,4.216,64.648,-61.766,-13.477
0.283,22.308,4.178,4.180,64.611,-61.930,-13.542
0.284,22.486,4.162,4.155,64.577,-62.093,-13.606
0.285,22.660,4.153,4.142,64.547,-62.252,-13.668
0.287,22.827,4.151,4.138,64.521,-62.406,-13.727
0.288,22.986,4.154,4.142,64.499,-62.553,-13.783
0.289,23.134,4.162,4.153,64.481,-62.690,-13.835
0.291,23.269,4.174,4.168,64.467,-62.817,-13.881
0.292,23.390,4.189,4.188,64.457,-62.930,-13.921
0.294,23.494,4.208,4.209,64.452,-63.029,-13.954
0.295,23.579,4.229,4.232,64.451,-63.110,-13.979
0.296,23.644,4.251,4.254,64.456,-63.173,-13.996
0.298,23.689,4.273,4.277,64.464,-63.217,-14.003
0.299,23.717,4.295,4.298,64.477,-63.242,-14.002
0.300,23.737,4.316,4.318,64.491,-63.253,-13.994
0.302,23.756,4.334,4.335,64.506,-63.253,-13.982
0.303,23.779,4.350,4.350,64.520,-63.245,-13.967
0.305,23.803,4.362,4.361,64.533,-63.231,-13.951
0.306,23.827,4.369,4.367,64.541,-63.215,-13.936
0.307,23.847,4.371,4.369,64.544,-63.199,-13.923
0.309,23.862,4.367,4.365,64.541,-63.188,-13.913
0.310,23.875,4.357,4.355,64.530,-63.184,-13.910
0.311,23.897,4.339,4.338,64.509,-63.189,-13.913
0.313,23.935,4.313,4.313,64.478,-63.208,-13.926
0.314,23.996,4.279,4.281,64.434,-63.243,-13.950
0.316,24.083,4.239,4.242,64.377,-63.297,-13.986
0.317,24.196,4.193,4.198,64.306,-63.371,-14.034
0.318,24.331,4.146,4.152,64.224,-63.461,-14.093
0.320,24.486,4.099,4.105,64.133,-63.565,-14.161
0.321,24.655,4.055,4.061,64.034,-63.681,-14.237
0.322,24.836,4.017,4.020,63.931,-63.805,-14.318
0.324,25.025,3.987,3.985,63.823,-63.935,-14.403
0.325,25.218,3.966,3.958,63.715,-64.068,-14.490
0.326,25.411,3.951,3.937,63.607,-64.202,-14.578
0.328,25.600,3.941,3.921,63.502,-64.334,-14.664
0.329,25.781,3.934,3.912,63.402,-64.460,-14.748
0.331,25.952,3.928,3.907,63.308,-64.579,-14.826
0.332,26.107,3.920,3.906,63.223,-64.687,-14.898
0.333,26.244,3.909,3.909,63.149,-64.783,-14.962
0.335,26.359,3.892,3.914,63.087,-64.863,-15.017
0.336,26.455,3.872,3.921,63.036,-64.929,-15.065
0.337,26.536,3.848,3.927,62.994,-64.981,-15.109
0.339,26.605,3.822,3.931,62.958,-65.023,-15.151
0.340,26.667,3.796,3.931,62.928,-65.054,-15.196
0.342,26.728,3.771,3.925,62.900,-65.077,-15.245
0.343,26.792,3.747,3.912,62.873,-65.093,-15.301
0.344,26.866,3.726,3.889,62.846,-65.102,-15.368
0.346,26.952,3.709,3.859,62.815,-65.108,-15.448
0.347,27.055,3.695,3.823,62.779,-65.111,-15.545
0.348,27.178,3.684,3.786,62.736,-65.112,-15.661
0.350,27.325,3.677,3.748,62.685,-65.113,-15.799
0.351,27.500,3.672,3.714,62.622,-65.116,-15.961
0.353,27.705,3.670,3.685,62.547,-65.122,-16.152
0.354,27.939,3.670,3.666,62.459,-65.131,-16.369
0.355,28.199,3.674,3.657,62.360,-65.144,-16.609
0.357,28.478,3.683,3.660,62.253,-65.161,-16.867
0.358,28.772,3.699,3.676,62.140,-65.182,-17.137
0.359,29.076,3.724,3.704,62.024,-65.206,-17.417
0.361,29.384,3.761,3.746,61.905,-65.235,-17.700
0.362,29.692,3.810,3.803,61.788,-65.268,-17.982
0.364,29.994,3.874,3.874,61.673,-65.305,-18.259
0.365,30.286,3.955,3.960,61.564,-65.347,-18.526
0.366,30.562,4.049,4.057,61.462,-65.393,-18.778
0.368,30.817,4.150,4.160,61.369,-65.443,-19.012
0.369,31.048,4.254,4.265,61.289,-65.498,-19.221
0.370,31.250,4.355,4.365,61.222,-65.557,-19.402
0.372,31.420,4.449,4.455,61.171,-65.622,-19.550
0.373,31.561,4.529,4.532,61.135,-65.690,-19.669
0.374,31.679,4.593,4.589,61.112,-65.761,-19.760
0.376,31.778,4.638,4.628,61.101,-65.834,-19.827
0.377,31.865,4.666,4.650,61.099,-65.908,-19.872
0.379,31.945,4.682,4.662,61.106,-65.983,-19.898
0.380,32.021,4.688,4.666,61.119,-66.057,-19.908
0.381,32.096,4.685,4.666,61.137,-66.130,-19.906
0.383,32.171,4.678,4.667,61.159,-66.200,-19.893
0.384,32.245,4.669,4.672,61.182,-66.268,-19.873
0.385,32.317,4.659,4.684,61.205,-66.331,-19.848
0.387,32.385,4.650,4.702,61.227,-66.390,-19.822
0.388,32.446,4.642,4.724,61.246,-66.443,-19.797
0.390,32.499,4.634,4.748,61.260,-66.489,-19.776
0.391,32.542,4.628,4.773,61.269,-66.529,-19.761
0.392,32.578,4.622,4.796,61.273,-66.562,-19.751
0.394,32.606,4.619,4.816,61.273,-66.590,-19.745
0.395,32.628,4.617,4.832,61.269,-66.612,-19.743
0.396,32.646,4.617,4.842,61.263,-66.629,-19.745
0.398,32.662,4.618,4.849,61.255,-66.642,-19.750
0.399,32.677,4.620,4.852,61.246,-66.651,-19.758
0.401,32.693,4.622,4.852,61.236,-66.656,-19.768
0.402,32.709,4.623,4.849,61.225,-66.658,-19.781
0.403,32.726,4.625,4.844,61.216,-66.657,-19.794
0.405,32.743,4.625,4.838,61.207,-66.655,-19.809
0.406,32.761,4.624,4.830,61.200,-66.650,-19.824
0.407,32.778,4.623,4.822,61.196,-66.645,-19.840
0.409,32.794,4.622,4.814,61.194,-66.638,-19.855
0.410,32.810,4.621,4.806,61.195,-66.632,-19.870
0.412,32.825,4.622,4.799,61.197,-66.627,-19.884
0.413,32.839,4.625,4.792,61.199,-66.624,-19.897
0.414,32.850,4.630,4.788,61.201,-66.625,-19.908
0.416,32.861,4.637,4.784,61.202,-66.629,-19.918
0.417,32.873,4.645,4.782,61.200,-66.639,-19.925
0.418,32.890,4.651,4.781,61.196,-66.655,-19.930
0.420,32.915,4.654,4.781,61.188,-66.678,-19.933
0.421,32.948,4.650,4.780,61.174,-66.709,-19.933
0.422,32.993,4.638,4.779,61.156,-66.749,-19.929
0.424,33.049,4.615,4.777,61.130,-66.799,-19.922
0.425,33.120,4.580,4.774,61.097,-66.860,-19.911
0.427,33.205,4.535,4.769,61.056,-66.933,-19.897
0.428,33.305,4.484,4.763,61.006,-67.018,-19.879
0.429,33.421,4.431,4.755,60.947,-67.116,-19.860
0.431,33.550,4.380,4.746,60.879,-67.225,-19.843
0.432,33.694,4.336,4.736,60.801,-67.345,-19.829
0.433,33.852,4.302,4.724,60.713,-67.476,-19.821
0.435,34.024,4.283,4.712,60.616,-67.618,-19.822
0.436,34.210,4.280,4.699,60.509,-67.769,-19.833
0.438,34.412,4.290,4.684,60.391,-67.931,-19.857
0.439,34.629,4.311,4.669,60.262,-68.102,-19.896
0.440,34.864,4.339,4.652,60.123,-68.282,-19.952
0.442,35.117,4.372,4.635,59.973,-68.471,-20.028
0.443,35.389,4.406,4.617,59.812,-68.668,-20.126
0.444,35.684,4.438,4.598,59.639,-68.873,-20.248
0.446,36.001,4.467,4.580,59.455,-69.086,-20.395
0.447,36.338,4.495,4.565,59.262,-69.304,-20.564
0.449,36.689,4.524,4.558,59.064,-69.524,-20.753
0.450,37.050,4.557,4.565,58.863,-69.746,-20.955
0.451,37.417,4.598,4.588,58.661,-69.965,-21.169
0.453,37.784,4.648,4.634,58.463,-70.181,-21.389
0.454,38.145,4.712,4.706,58.270,-70.391,-21.612
0.455,38.497,4.792,4.808,58.086,-70.591,-21.834
0.457,38.833,4.886,4.937,57.913,-70.781,-22.051
0.458,39.148,4.988,5.083,57.755,-70.958,-22.259
0.460,39.437,5.094,5.236,57.614,-71.119,-22.454
0.461,39.696,5.199,5.388,57.494,-71.262,-22.632
0.462,39.918,5.296,5.528,57.396,-71.384,-22.790
0.464,40.100,5.381,5.648,57.324,-71.484,-22.923
0.465,40.241,5.448,5.737,57.277,-71.562,-23.031
0.466,40.347,5.496,5.792,57.252,-71.619,-23.117
0.468,40.425,5.527,5.817,57.243,-71.658,-23.183
0.469,40.480,5.545,5.820,57.247,-71.682,-23.233
0.471,40.519,5.553,5.807,57.260,-71.692,-23.269
0.472,40.550,5.554,5.784,57.277,-71.691,-23.295
0.473,40.576,5.553,5.757,57.294,-71.681,-23.312
0.475,40.601,5.553,5.733,57.306,-71.664,-23.325
0.476,40.624,5.556,5.717,57.311,-71.643,-23.335
0.477,40.651,5.563,5.709,57.303,-71.620,-23.346
0.479,40.687,5.572,5.708,57.279,-71.598,-23.361
0.480,40.741,5.582,5.712,57.233,-71.578,-23.382
0.481,40.820,5.592,5.720,57.163,-71.563,-23.412
0.483,40.927,5.602,5.730,57.064,-71.555,-23.454
0.484,41.061,5.608,5.740,56.941,-71.553,-23.507
0.486,41.218,5.612,5.749,56.796,-71.555,-23.568
0.487,41.393,5.612,5.756,56.635,-71.562,-23.636
0.488,41.581,5.611,5.762,56.462,-71.571,-23.709
0.490,41.779,5.610,5.768,56.280,-71.582,-23.785
0.491,41.981,5.612,5.773,56.094,-71.594,-23.863
0.492,42.182,5.617,5.779,55.908,-71.605,-23.940
0.494,42.379,5.628,5.786,55.727,-71.614,-24.015
0.495,42.566,5.646,5.794,55.554,-71.620,-24.087
0.497,42.739,5.671,5.805,55.393,-71.623,-24.153
0.498,42.894,5.703,5.816,55.250,-71.620,-24.211
0.499,43.026,5.737,5.827,55.128,-71.611,-24.260
0.501,43.132,5.773,5.839,55.031,-71.595,-24.298
0.502,43.212,5.807,5.849,54.959,-71.572,-24.326
0.503,43.271,5.836,5.858,54.910,-71.544,-24.344
0.505,43.317,5.859,5.864,54.879,-71.513,-24.357
0.506,43.353,5.874,5.867,54.863,-71.482,-24.366
0.508,43.385,5.880,5.866,54.858,-71.452,-24.373
0.509,43.413,5.878,5.863,54.861,-71.425,-24.381
0.510,43.438,5.870,5.856,54.867,-71.403,-24.391
0.512,43.460,5.857,5.846,54.875,-71.389,-24.407
0.513,43.484,5.840,5.834,54.879,-71.384,-24.431
0.514,43.518,5.820,5.818,54.876,-71.391,-24.464
0.516,43.569,5.798,5.800,54.863,-71.410,-24.509
0.517,43.644,5.775,5.778,54.836,-71.446,-24.568
0.519,43.746,5.750,5.755,54.792,-71.498,-24.645
0.520,43.881,5.724,5.729,54.728,-71.570,-24.739
0.521,44.044,5.697,5.700,54.645,-71.658,-24.849
0.523,44.232,5.668,5.670,54.547,-71.760,-24.973
0.524,44.440,5.637,5.638,54.437,-71.873,-25.107
0.525,44.662,5.605,5.605,54.316,-71.995,-25.249
0.527,44.895,5.570,5.569,54.190,-72.123,-25.396
0.528,45.132,5.533,5.532,54.059,-72.254,-25.545
0.529,45.370,5.493,5.491,53.927,-72.385,-25.693
0.531,45.603,5.448,5.447,53.797,-72.513,-25.838
0.532,45.827,5.399,5.399,53.671,-72.637,-25.976
0.534,46.037,5.345,5.345,53.553,-72.752,-26.105
0.535,46.228,5.285,5.285,53.446,-72.857,-26.223
0.536,46.394,5.219,5.219,53.351,-72.949,-26.325
0.538,46.532,5.148,5.148,53.273,-73.025,-26.410
0.539,46.642,5.075,5.076,53.210,-73.084,-26.477
0.540,46.726,5.005,5.005,53.159,-73.128,-26.528
0.542,46.790,4.939,4.939,53.117,-73.160,-26.564
0.543,46.839,4.881,4.881,53.079,-73.182,-26.586
0.545,46.880,4.833,4.834,53.042,-73.194,-26.598
0.546,46.920,4.800,4.800,53.002,-73.199,-26.599
0.547,46.967,4.782,4.782,52.956,-73.200,-26.592
0.549,47.025,4.773,4.773,52.900,-73.197,-26.579
0.550,47.097,4.770,4.770,52.829,-73.193,-26.561
0.551,47.187,4.768,4.768,52.742,-73.190,-26.540
0.553,47.299,4.763,4.763,52.633,-73.190,-26.517
0.554,47.435,4.750,4.750,52.499,-73.194,-26.494
0.556,47.599,4.726,4.726,52.336,-73.205,-26.474
0.557,47.794,4.687,4.687,52.143,-73.224,-26.456
0.558,48.016,4.636,4.636,51.923,-73.249,-26.442
0.560,48.261,4.578,4.578,51.680,-73.281,-26.430
0.561,48.524,4.517,4.517,51.420,-73.317,-26.421
0.562,48.799,4.458,4.458,51.147,-73.355,-26.414
0.564,49.081,4.406,4.406,50.868,-73.396,-26.409
0.565,49.366,4.364,4.364,50.587,-73.437,-26.406
0.567,49.647,4.338,4.338,50.308,-73.477,-26.403
0.568,49.920,4.327,4.327,50.037,-73.514,-26.402
0.569,50.180,4.327,4.327,49.780,-73.548,-26.401
0.571,50.422,4.334,4.334,49.540,-73.576,-26.400
0.572,50.639,4.344,4.344,49.324,-73.598,-26.399
0.573,50.828,4.353,4.353,49.135,-73.613,-26.397
0.575,50.984,4.358,4.358,48.979,-73.618,-26.395
