"T","Distance","Radius","FreeRadius","X","Y","Z"
0.000,0.000,1.989,1.989,299.284,283.037,275.410
0.001,0.554,2.166,2.166,299.303,282.917,275.950
0.003,1.101,2.339,2.339,299.322,282.798,276.484
0.004,1.635,2.506,2.506,299.339,282.683,277.005
0.006,2.149,2.663,2.663,299.356,282.574,277.507
0.007,2.636,2.808,2.808,299.370,282.471,277.983
0.009,3.090,2.936,2.936,299.383,282.377,278.426
0.010,3.503,3.044,3.044,299.393,282.294,278.832
0.012,3.871,3.131,3.131,299.401,282.223,279.192
0.013,4.184,3.200,3.200,299.405,282.166,279.500
0.015,4.438,3.253,3.253,299.406,282.125,279.751
0.016,4.627,3.296,3.296,299.403,282.102,279.938
0.017,4.752,3.332,3.332,299.397,282.094,280.063
0.019,4.826,3.365,3.365,299.392,282.098,280.136
0.020,4.859,3.399,3.399,299.391,282.109,280.167
0.022,4.874,3.437,3.437,299.396,282.124,280.165
0.023,4.906,3.478,3.478,299.411,282.136,280.140
0.025,4.954,3.523,3.523,299.439,282.143,280.101
0.026,5.016,3.570,3.570,299.483,282.140,280.058
0.028,5.091,3.620,3.620,299.546,282.122,280.021
0.029,5.186,3.672,3.672,299.631,282.085,280.000
0.030,5.312,3.725,3.725,299.742,282.025,280.003
0.032,5.476,3.780,3.780,299.878,281.940,280.038
0.033,5.676,3.835,3.835,300.035,281.834,280.100
0.035,5.903,3.891,3.891,300.208,281.712,280.184
0.036,6.149,3.948,3.948,300.390,281.581,280.284
0.038,6.403,4.006,4.006,300.575,281.446,280.394
0.039,6.657,4.064,4.064,300.758,281.312,280.509
0.041,6.900,4.123,4.123,300.931,281.186,280.623
0.042,7.123,4.181,4.181,301.091,281.073,280.731
0.044,7.317,4.238,4.238,301.229,280.977,280.827
0.045,7.471,4.290,4.290,301.342,280.906,280.905
0.046,7.577,4.335,4.335,301.422,280.864,280.960
0.048,7.638,4.372,4.372,301.471,280.849,280.993
0.049,7.667,4.398,4.398,301.495,280.854,281.008
0.051,7.687,4.411,4.411,301.499,280.873,281.009
0.052,7.717,4.410,4.410,301.488,280.900,280.999
0.054,7.755,4.400,4.400,301.467,280.928,280.983
0.055,7.793,4.384,4.384,301.442,280.950,280.965
0.057,7.824,4.367,4.367,301.417,280.960,280.949
0.058,7.846,4.353,4.353,301.399,280.951,280.940
0.060,7.881,4.347,4.347,301.393,280.917,280.940
0.061,7.948,4.352,4.352,301.403,280.852,280.954
0.062,8.056,4.370,4.370,301.432,280.752,280.984
0.064,8.199,4.401,4.401,301.478,280.624,281.028
0.065,8.370,4.443,4.443,301.537,280.473,281.082
0.067,8.562,4.493,4.493,301.606,280.305,281.144
0.068,8.767,4.550,4.550,301.682,280.127,281.211
0.070,8.978,4.612,4.612,301.761,279.944,281.281
0.071,9.187,4.676,4.676,301.840,279.763,281.349
0.073,9.387,4.742,4.742,301.915,279.590,281.414
0.074,9.570,4.807,4.807,301.984,279.431,281.472
0.075,9.728,4.868,4.868,302.042,279.291,281.521
0.077,9.856,4.925,4.925,302.087,279.178,281.558
0.078,9.955,4.975,4.975,302.120,279.088,281.583
0.080,10.030,5.017,5.017,302.141,279.017,281.599
0.081,10.088,5.047,5.047,302.153,278.962,281.607
0.083,10.133,5.067,5.067,302.156,278.916,281.608
0.084,10.173,5.079,5.079,302.153,278.877,281.605
0.086,10.212,5.086,5.086,302.146,278.839,281.600
0.087,10.254,5.092,5.092,302.135,278.798,281.593
0.089,10.305,5.101,5.101,302.122,278.750,281.587
0.090,10.366,5.114,5.114,302.110,278.690,281.584
0.091,10.444,5.137,5.137,302.099,278.613,281.585
0.093,10.538,5.168,5.168,302.091,278.519,281.591
0.094,10.647,5.207,5.207,302.085,278.411,281.602
0.096,10.766,5.249,5.249,302.081,278.293,281.616
0.097,10.891,5.293,5.293,302.079,278.169,281.632
0.099,11.019,5.335,5.335,302.079,278.042,281.650
0.100,11.145,5.372,5.372,302.080,277.918,281.670
0.102,11.265,5.402,5.402,302.082,277.799,281.689
0.103,11.375,5.423,5.423,302.085,277.691,281.708
0.104,11.472,5.438,5.438,302.089,277.595,281.725
0.106,11.552,5.449,5.449,302.094,277.518,281.740
0.107,11.610,5.456,5.456,302.098,277.460,281.752
0.109,11.649,5.462,5.462,302.103,277.423,281.761
0.110,11.672,5.468,5.468,302.108,277.402,281.767
0.112,11.681,5.477,5.477,302.113,277.395,281.771
0.113,11.687,5.489,5.489,302.117,277.399,281.773
0.115,11.701,5.503,5.503,302.121,277.412,281.773
0.116,11.721,5.517,5.517,302.125,277.432,281.771
0.118,11.744,5.532,5.532,302.128,277.454,281.767
0.119,11.768,5.545,5.545,302.130,277.478,281.763
0.120,11.791,5.556,5.556,302.131,277.500,281.757
0.122,11.809,5.564,5.564,302.132,277.517,281.751
0.123,11.822,5.569,5.569,302.132,277.529,281.745
0.125,11.830,5.571,5.571,302.132,277.535,281.740
0.126,11.834,5.572,5.572,302.132,277.537,281.737
0.128,11.837,5.571,5.571,302.134,277.535,281.737
0.129,11.846,5.570,5.570,302.137,277.528,281.741
0.131,11.860,5.570,5.570,302.143,277.518,281.750
0.132,11.882,5.571,5.571,302.152,277.505,281.765
0.134,11.912,5.573,5.573,302.165,277.489,281.787
0.135,11.951,5.578,5.578,302.182,277.470,281.816
0.136,11.999,5.584,5.584,302.204,277.450,281.855
0.138,12.059,5.592,5.592,302.231,277.429,281.903
0.139,12.127,5.601,5.601,302.263,277.406,281.959
0.141,12.202,5.613,5.613,302.298,277.383,282.021
0.142,12.282,5.626,5.626,302.336,277.360,282.088
0.144,12.365,5.641,5.641,302.375,277.337,282.157
0.145,12.449,5.658,5.658,302.415,277.314,282.228
0.147,12.531,5.675,5.675,302.454,277.293,282.297
0.148,12.610,5.692,5.692,302.492,277.274,282.363
0.149,12.684,5.709,5.709,302.528,277.256,282.425
0.151,12.750,5.725,5.725,302.561,277.241,282.481
0.152,12.807,5.741,5.741,302.589,277.229,282.528
0.154,12.854,5.755,5.755,302.613,277.220,282.568
0.155,12.894,5.767,5.767,302.633,277.212,282.602
0.157,12.929,5.778,5.778,302.651,277.204,282.631
0.158,12.962,5.786,5.786,302.667,277.196,282.658
0.160,12.993,5.792,5.792,302.682,277.185,282.683
0.161,13.025,5.796,5.796,302.696,277.172,282.709
0.163,13.062,5.797,5.797,302.711,277.155,282.738
0.164,13.104,5.796,5.796,302.728,277.134,282.770
0.165,13.155,5.793,5.793,302.746,277.106,282.809
0.167,13.216,5.789,5.789,302.768,277.071,282.854
0.168,13.289,5.785,5.785,302.792,277.028,282.908
0.170,13.371,5.781,5.781,302.820,276.980,282.969
0.171,13.461,5.777,5.777,302.849,276.927,283.034
0.173,13.554,5.775,5.775,302.880,276.871,283.102
0.174,13.650,5.774,5.774,302.913,276.814,283.172
0.176,13.745,5.775,5.775,302.945,276.757,283.241
0.177,13.838,5.776,5.776,302.978,276.702,283.307
0.179,13.925,5.777,5.777,303.010,276.650,283.370
0.180,14.004,5.779,5.779,303.040,276.603,283.426
0.181,14.073,5.780,5.780,303.069,276.563,283.474
0.183,14.130,5.781,5.781,303.094,276.530,283.513
0.184,14.174,5.781,5.781,303.118,276.506,283.542
0.186,14.207,5.780,5.780,303.138,276.489,283.561
0.187,14.229,5.779,5.779,303.155,276.479,283.572
0.189,14.245,5.778,5.778,303.170,276.475,283.574
0.190,14.257,5.777,5.777,303.181,276.477,283.569
0.192,14.274,5.776,5.776,303.190,276.483,283.557
0.193,14.296,5.775,5.775,303.195,276.494,283.538
0.194,14.324,5.775,5.775,303.198,276.508,283.514
0.196,14.359,5.775,5.775,303.197,276.525,283.484
0.197,14.399,5.775,5.775,303.193,276.545,283.449
0.199,14.443,5.776,5.776,303.187,276.565,283.411
0.200,14.486,5.777,5.777,303.179,276.585,283.374
0.202,14.522,5.779,5.779,303.171,276.601,283.342
0.203,14.548,5.781,5.781,303.165,276.613,283.319
0.205,14.559,5.783,5.783,303.162,276.617,283.310
0.206,14.569,5.785,5.785,303.164,276.611,283.318
0.208,14.604,5.786,5.786,303.171,276.595,283.348
0.209,14.670,5.786,5.786,303.187,276.564,283.404
0.210,14.771,5.784,5.784,303.211,276.518,283.490
0.212,14.912,5.780,5.780,303.246,276.453,283.610
0.213,15.096,5.774,5.774,303.293,276.369,283.768
0.215,15.320,5.768,5.768,303.350,276.268,283.959
0.216,15.576,5.764,5.764,303.415,276.151,284.177
0.218,15.857,5.765,5.765,303.487,276.023,284.417
0.219,16.156,5.773,5.773,303.562,275.886,284.671
0.221,16.464,5.791,5.791,303.639,275.743,284.933
0.222,16.775,5.820,5.820,303.715,275.597,285.198
0.224,17.082,5.864,5.864,303.788,275.451,285.457
0.225,17.377,5.919,5.919,303.857,275.309,285.706
0.226,17.653,5.981,5.981,303.918,275.172,285.938
0.228,17.902,6.046,6.046,303.970,275.045,286.146
0.229,18.122,6.111,6.111,304.012,274.929,286.328
0.231,18.315,6.170,6.170,304.045,274.823,286.486
0.232,18.484,6.220,6.220,304.070,274.726,286.622
0.234,18.631,6.258,6.258,304.088,274.639,286.739
0.235,18.758,6.285,6.285,304.100,274.561,286.838
0.237,18.868,6.303,6.303,304.107,274.491,286.923
0.238,18.962,6.315,6.315,304.111,274.428,286.994
0.239,19.044,6.323,6.323,304.112,274.373,287.055
0.241,19.116,6.330,6.330,304.111,274.325,287.107
0.242,19.178,6.338,6.338,304.110,274.283,287.154
0.244,19.234,6.350,6.350,304.110,274.247,287.197
0.245,19.284,6.364,6.364,304.110,274.216,287.236
0.247,19.329,6.379,6.379,304.113,274.190,287.272
0.248,19.370,6.395,6.395,304.118,274.167,287.306
0.250,19.407,6.411,6.411,304.125,274.148,287.337
0.251,19.442,6.425,6.425,304.135,274.131,287.366
0.253,19.477,6.436,6.436,304.149,274.116,287.393
0.254,19.511,6.443,6.443,304.167,274.102,287.419
0.255,19.548,6.448,6.448,304.190,274.088,287.444
0.257,19.587,6.452,6.452,304.218,274.075,287.468
0.258,19.630,6.456,6.456,304.251,274.060,287.492
0.260,19.679,6.461,6.461,304.290,274.044,287.516
0.261,19.732,6.469,6.469,304.332,274.026,287.543
0.263,19.790,6.482,6.482,304.376,274.006,287.574
0.264,19.852,6.500,6.500,304.422,273.983,287.611
0.266,19.921,6.523,6.523,304.467,273.957,287.655
0.267,19.996,6.549,6.549,304.511,273.927,287.709
0.269,20.080,6.576,6.576,304.551,273.893,287.774
0.270,20.174,6.605,6.605,304.588,273.854,287.851
0.271,20.280,6.633,6.633,304.618,273.811,287.943
0.273,20.402,6.660,6.660,304.642,273.761,288.052
0.274,20.539,6.684,6.684,304.658,273.707,288.177
0.276,20.690,6.706,6.706,304.670,273.649,288.316
0.277,20.852,6.726,6.726,304.680,273.589,288.466
0.279,21.022,6.746,6.746,304.693,273.528,288.624
0.280,21.195,6.765,6.765,304.710,273.470,288.786
0.282,21.368,6.784,6.784,304.737,273.415,288.948
0.283,21.540,6.804,6.804,304.775,273.366,289.108
0.284,21.708,6.825,6.825,304.828,273.325,289.262
0.286,21.873,6.847,6.847,304.900,273.293,289.408
0.287,22.037,6.870,6.870,304.994,273.272,289.540
0.289,22.204,6.892,6.892,305.113,273.264,289.657
0.290,22.378,6.914,6.914,305.254,273.269,289.758
0.292,22.559,6.936,6.936,305.413,273.284,289.844
0.293,22.745,6.957,6.957,305.582,273.308,289.917
0.295,22.933,6.977,6.977,305.758,273.338,289.978
0.296,23.120,6.995,6.995,305.934,273.371,290.029
0.298,23.299,7.010,7.010,306.105,273.407,290.071
0.299,23.466,7.023,7.023,306.265,273.442,290.104
0.300,23.616,7.031,7.031,306.409,273.476,290.132
0.302,23.743,7.035,7.035,306.530,273.504,290.155
0.303,23.841,7.035,7.035,306.624,273.527,290.175
0.305,23.909,7.029,7.029,306.688,273.541,290.192
0.306,23.951,7.019,7.019,306.726,273.549,290.207
0.308,23.972,7.007,7.007,306.743,273.551,290.219
0.309,23.983,6.995,6.995,306.745,273.548,290.230
0.311,23.996,6.983,6.983,306.737,273.542,290.238
0.312,24.013,6.973,6.973,306.725,273.533,290.244
0.313,24.029,6.968,6.968,306.713,273.523,290.248
0.315,24.041,6.967,6.967,306.706,273.512,290.249
0.316,24.052,6.969,6.969,306.711,273.502,290.249
0.318,24.074,6.973,6.973,306.732,273.495,290.247
0.319,24.116,6.977,6.977,306.773,273.489,290.243
0.321,24.179,6.980,6.980,306.836,273.488,290.237
0.322,24.262,6.981,6.981,306.918,273.489,290.229
0.324,24.361,6.978,6.978,307.017,273.495,290.221
0.325,24.477,6.971,6.971,307.132,273.503,290.213
0.327,24.606,6.960,6.960,307.260,273.516,290.205
0.328,24.747,6.945,6.945,307.400,273.533,290.197
0.329,24.898,6.927,6.927,307.550,273.554,290.190
0.331,25.058,6.908,6.908,307.707,273.579,290.185
0.332,25.225,6.887,6.887,307.871,273.609,290.181
0.334,25.396,6.865,6.865,308.039,273.643,290.180
0.335,25.570,6.843,6.843,308.209,273.682,290.181
0.337,25.745,6.821,6.821,308.378,273.724,290.184
0.338,25.917,6.800,6.800,308.545,273.768,290.188
0.340,26.085,6.780,6.780,308.707,273.812,290.194
0.341,26.246,6.762,6.762,308.861,273.857,290.201
0.343,26.396,6.745,6.745,309.005,273.901,290.207
0.344,26.534,6.731,6.731,309.136,273.942,290.214
0.345,26.657,6.720,6.720,309.253,273.980,290.220
0.347,26.762,6.712,6.712,309.352,274.014,290.225
0.348,26.847,6.705,6.705,309.432,274.042,290.228
0.350,26.909,6.701,6.701,309.490,274.063,290.230
0.351,26.951,6.698,6.698,309.529,274.079,290.230
0.353,26.974,6.696,6.696,309.550,274.089,290.228
0.354,26.983,6.696,6.696,309.558,274.094,290.226
0.356,26.988,6.697,6.697,309.554,274.095,290.223
0.357,27.001,6.698,6.698,309.541,274.093,290.220
0.358,27.020,6.700,6.700,309.523,274.088,290.217
0.360,27.042,6.702,6.702,309.503,274.081,290.215
0.361,27.064,6.704,6.704,309.482,274.073,290.213
0.363,27.084,6.706,6.706,309.464,274.065,290.213
0.364,27.099,6.708,6.708,309.452,274.056,290.214
0.366,27.108,6.709,6.710,309.447,274.048,290.217
0.367,27.117,6.710,6.712,309.448,274.041,290.220
0.369,27.127,6.710,6.714,309.454,274.035,290.225
0.370,27.139,6.710,6.716,309.464,274.029,290.230
0.372,27.154,6.708,6.720,309.477,274.024,290.236
0.373,27.171,6.706,6.723,309.493,274.020,290.241
0.374,27.189,6.703,6.728,309.510,274.016,290.245
0.376,27.206,6.700,6.734,309.527,274.014,290.249
0.377,27.223,6.695,6.740,309.543,274.012,290.251
0.379,27.238,6.690,6.747,309.558,274.011,290.251
0.380,27.251,6.685,6.752,309.571,274.012,290.249
0.382,27.264,6.679,6.757,309.583,274.013,290.246
0.383,27.278,6.673,6.759,309.597,274.014,290.243
0.385,27.294,6.667,6.760,309.613,274.016,290.240
0.386,27.315,6.660,6.759,309.633,274.017,290.238
0.388,27.341,6.652,6.754,309.660,274.018,290.238
0.389,27.376,6.642,6.747,309.694,274.018,290.240
0.390,27.420,6.628,6.736,309.738,274.017,290.247
0.392,27.477,6.609,6.721,309.793,274.014,290.257
0.393,27.547,6.585,6.702,309.861,274.010,290.273
0.395,27.632,6.555,6.678,309.944,274.004,290.295
0.396,27.732,6.520,6.650,310.040,273.996,290.322
0.398,27.843,6.480,6.618,310.146,273.987,290.354
0.399,27.961,6.439,6.583,310.258,273.977,290.388
0.401,28.082,6.398,6.546,310.373,273.967,290.424
0.402,28.203,6.359,6.506,310.488,273.957,290.461
0.403,28.319,6.324,6.466,310.598,273.949,290.496
0.405,28.428,6.294,6.424,310.701,273.941,290.529
0.406,28.524,6.271,6.383,310.793,273.936,290.559
0.408,28.605,6.254,6.344,310.871,273.933,290.583
0.409,28.667,6.241,6.308,310.930,273.933,290.601
0.411,28.709,6.232,6.276,310.970,273.936,290.612
0.412,28.733,6.227,6.250,310.993,273.942,290.618
0.414,28.746,6.225,6.230,311.003,273.950,290.618
0.415,28.755,6.226,6.219,311.004,273.958,290.615
0.417,28.765,6.227,6.214,310.999,273.967,290.610
0.418,28.776,6.229,6.214,310.994,273.974,290.604
0.419,28.785,6.230,6.217,310.991,273.979,290.598
0.421,28.790,6.228,6.219,310.993,273.982,290.594
0.422,28.803,6.223,6.218,311.006,273.981,290.593
0.424,28.831,6.213,6.212,311.033,273.975,290.597
0.425,28.877,6.197,6.198,311.077,273.964,290.605
0.427,28.941,6.176,6.178,311.138,273.948,290.619
0.428,29.019,6.151,6.152,311.211,273.928,290.637
0.430,29.107,6.123,6.122,311.293,273.906,290.658
0.431,29.201,6.093,6.092,311.381,273.881,290.680
0.433,29.298,6.063,6.061,311.472,273.856,290.704
0.434,29.393,6.034,6.033,311.561,273.832,290.726
0.435,29.482,6.006,6.009,311.645,273.808,290.748
0.437,29.563,5.982,5.989,311.720,273.787,290.766
0.438,29.630,5.960,5.974,311.783,273.770,290.781
0.440,29.680,5.943,5.962,311.831,273.758,290.791
0.441,29.712,5.929,5.954,311.862,273.750,290.796
0.443,29.729,5.920,5.950,311.878,273.747,290.796
0.444,29.734,5.917,5.948,311.883,273.746,290.794
0.446,29.740,5.918,5.949,311.879,273.748,290.790
0.447,29.752,5.924,5.952,311.869,273.751,290.785
0.448,29.766,5.933,5.956,311.856,273.755,290.780
0.450,29.779,5.941,5.960,311.843,273.757,290.778
0.451,29.789,5.948,5.963,311.833,273.758,290.779
0.453,29.796,5.952,5.963,311.829,273.755,290.783
0.454,29.809,5.950,5.960,311.833,273.749,290.794
0.456,29.834,5.941,5.953,311.849,273.739,290.810
0.457,29.872,5.926,5.942,311.876,273.724,290.833
0.459,29.922,5.905,5.928,311.913,273.705,290.860
0.460,29.981,5.880,5.911,311.958,273.683,290.892
0.462,30.047,5.851,5.891,312.009,273.659,290.926
0.463,30.119,5.821,5.870,312.066,273.634,290.962
0.464,30.195,5.790,5.848,312.127,273.607,290.999
0.466,30.273,5.760,5.826,312.190,273.581,291.036
0.467,30.351,5.730,5.804,312.255,273.556,291.071
0.469,30.427,5.701,5.782,312.319,273.531,291.104
0.470,30.499,5.674,5.761,312.382,273.509,291.134
0.472,30.568,5.648,5.741,312.442,273.489,291.159
0.473,30.636,5.623,5.723,312.503,273.470,291.182
0.475,30.704,5.600,5.707,312.566,273.450,291.201
0.476,30.776,5.578,5.694,312.632,273.427,291.217
0.478,30.854,5.557,5.681,312.704,273.401,291.231
0.479,30.940,5.536,5.668,312.783,273.369,291.242
0.480,31.037,5.512,5.653,312.872,273.331,291.252
0.482,31.147,5.485,5.634,312.971,273.285,291.261
0.483,31.273,5.454,5.609,313.084,273.230,291.269
0.485,31.416,5.417,5.576,313.211,273.163,291.276
0.486,31.580,5.372,5.536,313.354,273.084,291.283
0.488,31.761,5.322,5.488,313.511,272.995,291.292
0.489,31.956,5.267,5.435,313.680,272.898,291.304
0.491,32.162,5.209,5.379,313.856,272.793,291.320
0.492,32.376,5.149,5.322,314.038,272.684,291.343
0.493,32.594,5.088,5.266,314.223,272.571,291.375
0.495,32.814,5.027,5.214,314.407,272.458,291.416
0.496,33.034,4.969,5.166,314.588,272.346,291.470
0.498,33.250,4.913,5.124,314.763,272.237,291.536
0.499,33.463,4.862,5.086,314.930,272.133,291.618
0.501,33.670,4.815,5.051,315.084,272.036,291.717
0.502,33.872,4.774,5.020,315.225,271.947,291.831
0.504,34.070,4.740,4.992,315.354,271.865,291.957
0.505,34.263,4.714,4.966,315.470,271.791,292.092
0.507,34.449,4.696,4.941,315.575,271.724,292.231
0.508,34.627,4.685,4.919,315.668,271.665,292.370
0.509,34.795,4.680,4.898,315.750,271.612,292.506
0.511,34.949,4.678,4.880,315.821,271.567,292.636
0.512,35.088,4.679,4.864,315.882,271.528,292.754
0.514,35.208,4.680,4.851,315.933,271.496,292.858
0.515,35.306,4.681,4.840,315.975,271.471,292.943
0.517,35.380,4.679,4.833,316.007,271.451,293.007
0.518,35.433,4.676,4.828,316.032,271.438,293.052
0.520,35.467,4.671,4.825,316.049,271.429,293.080
0.521,35.486,4.666,4.824,316.059,271.424,293.094
0.522,35.492,4.662,4.824,316.065,271.423,293.097
0.524,35.499,4.658,4.825,316.066,271.424,293.090
0.525,35.513,4.656,4.827,316.063,271.427,293.077
0.527,35.531,4.655,4.829,316.058,271.431,293.059
0.528,35.551,4.657,4.831,316.050,271.436,293.041
0.530,35.571,4.659,4.834,316.042,271.440,293.024
0.531,35.587,4.662,4.836,316.034,271.443,293.010
0.533,35.598,4.665,4.839,316.028,271.444,293.001
0.534,35.604,4.667,4.841,316.025,271.442,292.996
0.536,35.611,4.668,4.844,316.027,271.436,292.996
0.537,35.626,4.667,4.848,316.036,271.424,293.000
0.538,35.653,4.665,4.854,316.054,271.405,293.008
0.540,35.694,4.662,4.863,316.082,271.378,293.020
0.541,35.750,4.656,4.879,316.122,271.343,293.036
0.543,35.823,4.650,4.902,316.176,271.298,293.055
0.544,35.916,4.642,4.935,316.247,271.241,293.078
0.546,36.031,4.633,4.979,316.334,271.172,293.104
0.547,36.167,4.623,5.034,316.440,271.090,293.133
0.549,36.322,4.612,5.097,316.560,270.999,293.165
0.550,36.489,4.600,5.163,316.691,270.900,293.197
0.552,36.664,4.587,5.229,316.828,270.797,293.230
0.553,36.842,4.575,5.291,316.969,270.692,293.263
0.554,37.019,4.562,5.344,317.108,270.589,293.295
0.556,37.189,4.550,5.384,317.243,270.489,293.325
0.557,37.347,4.538,5.410,317.369,270.396,293.352
0.559,37.490,4.527,5.423,317.482,270.313,293.375
0.560,37.612,4.517,5.427,317.579,270.242,293.394
0.562,37.708,4.508,5.425,317.656,270.186,293.408
0.563,37.782,4.500,5.419,317.717,270.144,293.417
0.565,37.840,4.494,5.413,317.765,270.112,293.423
0.566,37.888,4.491,5.409,317.807,270.089,293.426
0.567,37.933,4.489,5.408,317.848,270.071,293.429
0.569,37.981,4.488,5.409,317.893,270.055,293.431
0.570,38.040,4.489,5.407,317.949,270.039,293.435
0.572,38.114,4.490,5.400,318.020,270.019,293.442
0.573,38.210,4.491,5.386,318.113,269.994,293.452
0.575,38.334,4.492,5.360,318.231,269.959,293.468
0.576,38.493,4.492,5.320,318.382,269.913,293.489
0.578,38.688,4.492,5.266,318.565,269.854,293.517
0.579,38.914,4.492,5.203,318.777,269.784,293.549
0.581,39.163,4.496,5.134,319.011,269.705,293.583
0.582,39.430,4.504,5.065,319.262,269.620,293.618
0.583,39.708,4.518,5.001,319.523,269.530,293.651
0.585,39.991,4.540,4.945,319.789,269.438,293.679
0.586,40.272,4.571,4.904,320.053,269.346,293.702
0.588,40.545,4.613,4.879,320.310,269.256,293.716
0.589,40.804,4.663,4.869,320.555,269.170,293.721
0.591,41.043,4.720,4.872,320.781,269.091,293.713
