"T","Distance","Radius","FreeRadius","X","Y","Z"
0.000,0.000,1.419,1.419,77.046,-51.830,0.234
0.001,0.059,1.420,1.420,77.082,-51.784,0.245
0.003,0.117,1.423,1.423,77.118,-51.739,0.254
0.004,0.176,1.426,1.426,77.153,-51.693,0.263
0.005,0.234,1.432,1.432,77.186,-51.645,0.269
0.006,0.293,1.441,1.441,77.218,-51.596,0.273
0.008,0.353,1.453,1.453,77.248,-51.544,0.273
0.009,0.414,1.469,1.469,77.276,-51.490,0.269
0.010,0.476,1.490,1.490,77.301,-51.433,0.261
0.011,0.542,1.516,1.516,77.323,-51.373,0.247
0.013,0.611,1.547,1.547,77.342,-51.309,0.227
0.014,0.686,1.582,1.582,77.356,-51.241,0.200
0.015,0.767,1.621,1.621,77.366,-51.168,0.166
0.016,0.856,1.663,1.663,77.372,-51.090,0.123
0.018,0.954,1.707,1.707,77.373,-51.007,0.072
0.019,1.060,1.753,1.753,77.368,-50.918,0.013
0.020,1.175,1.800,1.800,77.359,-50.826,-0.054
0.021,1.297,1.847,1.847,77.345,-50.730,-0.128
0.023,1.425,1.894,1.894,77.327,-50.632,-0.209
0.024,1.559,1.939,1.939,77.305,-50.532,-0.294
0.025,1.696,1.982,1.982,77.279,-50.431,-0.385
0.026,1.838,2.022,2.022,77.249,-50.331,-0.479
0.028,1.981,2.058,2.058,77.216,-50.231,-0.576
0.029,2.126,2.089,2.089,77.179,-50.133,-0.676
0.030,2.271,2.114,2.114,77.140,-50.037,-0.777
0.031,2.415,2.133,2.133,77.097,-49.945,-0.880
0.033,2.557,2.147,2.147,77.052,-49.857,-0.982
0.034,2.697,2.158,2.158,77.005,-49.774,-1.084
0.035,2.833,2.171,2.171,76.955,-49.696,-1.185
0.036,2.967,2.187,2.187,76.902,-49.624,-1.285
0.038,3.100,2.208,2.208,76.846,-49.559,-1.386
0.039,3.231,2.238,2.238,76.787,-49.498,-1.486
0.040,3.363,2.280,2.280,76.723,-49.444,-1.588
0.041,3.495,2.335,2.335,76.655,-49.396,-1.690
0.043,3.628,2.402,2.402,76.582,-49.355,-1.794
0.044,3.764,2.480,2.480,76.503,-49.319,-1.899
0.045,3.904,2.566,2.566,76.419,-49.290,-2.007
0.046,4.049,2.657,2.657,76.329,-49.268,-2.117
0.048,4.199,2.750,2.750,76.232,-49.252,-2.231
0.049,4.355,2.845,2.845,76.128,-49.243,-2.348
0.050,4.519,2.938,2.938,76.017,-49.241,-2.468
0.051,4.691,3.027,3.027,75.898,-49.245,-2.592
0.053,4.869,3.111,3.111,75.774,-49.256,-2.719
0.054,5.052,3.190,3.190,75.644,-49.272,-2.848
0.055,5.238,3.264,3.264,75.512,-49.294,-2.976
0.056,5.424,3.332,3.332,75.378,-49.320,-3.103
0.058,5.610,3.394,3.394,75.244,-49.349,-3.228
0.059,5.793,3.451,3.451,75.111,-49.382,-3.350
0.060,5.971,3.501,3.501,74.981,-49.418,-3.466
0.061,6.142,3.545,3.545,74.856,-49.456,-3.576
0.063,6.305,3.584,3.584,74.736,-49.495,-3.679
0.064,6.457,3.617,3.617,74.624,-49.535,-3.774
0.065,6.596,3.646,3.646,74.521,-49.575,-3.858
0.066,6.722,3.671,3.671,74.427,-49.615,-3.932
0.068,6.831,3.694,3.694,74.346,-49.654,-3.993
0.069,6.925,3.714,3.714,74.275,-49.691,-4.043
0.070,7.006,3.734,3.734,74.215,-49.728,-4.083
0.072,7.076,3.754,3.754,74.163,-49.764,-4.113
0.073,7.136,3.773,3.773,74.120,-49.798,-4.136
0.074,7.187,3.792,3.792,74.084,-49.832,-4.151
0.075,7.233,3.810,3.810,74.054,-49.865,-4.162
0.077,7.274,3.828,3.828,74.029,-49.896,-4.168
0.078,7.311,3.844,3.844,74.009,-49.927,-4.171
0.079,7.345,3.858,3.858,73.991,-49.957,-4.173
0.080,7.378,3.871,3.871,73.976,-49.985,-4.173
0.082,7.409,3.881,3.881,73.962,-50.013,-4.174
0.083,7.439,3.890,3.890,73.948,-50.040,-4.177
0.084,7.469,3.897,3.897,73.933,-50.066,-4.183
0.085,7.500,3.903,3.903,73.917,-50.091,-4.192
0.087,7.532,3.909,3.909,73.900,-50.115,-4.205
0.088,7.566,3.915,3.915,73.882,-50.139,-4.219
0.089,7.600,3.921,3.921,73.864,-50.162,-4.237
0.090,7.637,3.929,3.929,73.844,-50.186,-4.256
0.092,7.674,3.938,3.938,73.823,-50.210,-4.276
0.093,7.713,3.949,3.949,73.802,-50.233,-4.299
0.094,7.753,3.961,3.961,73.780,-50.258,-4.322
0.095,7.794,3.975,3.975,73.758,-50.283,-4.346
0.097,7.836,3.988,3.988,73.735,-50.309,-4.370
0.098,7.880,4.002,4.002,73.712,-50.335,-4.395
0.099,7.923,4.016,4.016,73.689,-50.364,-4.419
0.100,7.968,4.030,4.030,73.665,-50.393,-4.443
0.102,8.013,4.042,4.042,73.642,-50.424,-4.465
0.103,8.058,4.054,4.054,73.618,-50.456,-4.488
0.104,8.104,4.065,4.065,73.595,-50.488,-4.509
0.105,8.148,4.075,4.075,73.572,-50.521,-4.529
0.107,8.192,4.084,4.084,73.550,-50.554,-4.548
0.108,8.235,4.093,4.093,73.528,-50.586,-4.566
0.109,8.276,4.101,4.101,73.507,-50.617,-4.583
0.110,8.316,4.108,4.108,73.488,-50.648,-4.599
0.112,8.353,4.115,4.115,73.469,-50.676,-4.613
0.113,8.387,4.121,4.121,73.453,-50.703,-4.626
0.114,8.418,4.127,4.127,73.437,-50.728,-4.638
0.115,8.446,4.132,4.132,73.424,-50.749,-4.649
0.117,8.470,4.136,4.136,73.412,-50.768,-4.658
0.118,8.489,4.140,4.140,73.402,-50.783,-4.665
0.119,8.505,4.144,4.144,73.394,-50.796,-4.671
0.120,8.518,4.147,4.147,73.388,-50.806,-4.676
0.122,8.528,4.150,4.150,73.382,-50.813,-4.680
0.123,8.537,4.152,4.152,73.377,-50.819,-4.683
0.124,8.544,4.153,4.153,73.372,-50.823,-4.685
0.125,8.550,4.154,4.154,73.367,-50.827,-4.687
0.127,8.556,4.155,4.155,73.362,-50.829,-4.688
0.128,8.563,4.156,4.156,73.355,-50.832,-4.690
0.129,8.571,4.156,4.156,73.348,-50.835,-4.691
0.130,8.581,4.156,4.156,73.338,-50.838,-4.692
0.132,8.593,4.156,4.156,73.327,-50.842,-4.693
0.133,8.608,4.156,4.156,73.313,-50.848,-4.695
0.134,8.626,4.156,4.156,73.297,-50.855,-4.697
0.136,8.647,4.157,4.157,73.278,-50.864,-4.701
0.137,8.671,4.159,4.159,73.258,-50.876,-4.705
0.138,8.698,4.162,4.162,73.235,-50.889,-4.711
0.139,8.728,4.167,4.167,73.211,-50.906,-4.718
0.141,8.761,4.175,4.175,73.187,-50.924,-4.728
0.142,8.796,4.185,4.185,73.161,-50.945,-4.740
0.143,8.834,4.197,4.197,73.136,-50.969,-4.755
0.144,8.874,4.213,4.213,73.111,-50.996,-4.773
0.146,8.918,4.230,4.230,73.087,-51.026,-4.795
0.147,8.966,4.248,4.248,73.064,-51.059,-4.820
0.148,9.017,4.268,4.268,73.043,-51.096,-4.849
0.149,9.073,4.289,4.289,73.024,-51.136,-4.882
0.151,9.133,4.310,4.310,73.007,-51.179,-4.921
0.152,9.197,4.332,4.332,72.993,-51.226,-4.963
0.153,9.265,4.353,4.353,72.981,-51.274,-5.009
0.154,9.334,4.374,4.374,72.972,-51.323,-5.057
0.156,9.403,4.393,4.393,72.966,-51.371,-5.106
0.157,9.471,4.409,4.409,72.963,-51.417,-5.156
0.158,9.536,4.422,4.422,72.962,-51.459,-5.205
0.159,9.596,4.430,4.430,72.965,-51.497,-5.252
0.161,9.652,4.434,4.434,72.970,-51.529,-5.297
0.162,9.700,4.433,4.433,72.978,-51.554,-5.337
0.163,9.741,4.426,4.426,72.989,-51.571,-5.373
0.164,9.775,4.415,4.415,73.002,-51.578,-5.404
0.166,9.804,4.402,4.402,73.019,-51.574,-5.427
0.167,9.834,4.388,4.388,73.038,-51.558,-5.443
0.168,9.871,4.376,4.376,73.061,-51.529,-5.450
0.169,9.915,4.368,4.368,73.084,-51.492,-5.451
0.171,9.964,4.365,4.365,73.108,-51.449,-5.446
0.172,10.013,4.368,4.368,73.130,-51.406,-5.438
0.173,10.059,4.380,4.380,73.149,-51.365,-5.428
0.174,10.098,4.396,4.396,73.165,-51.331,-5.417
0.176,10.126,4.414,4.414,73.175,-51.307,-5.408
0.177,10.138,4.430,4.430,73.178,-51.297,-5.402
0.178,10.148,4.441,4.441,73.173,-51.305,-5.400
0.179,10.182,4.444,4.444,73.158,-51.335,-5.403
0.181,10.244,4.435,4.435,73.132,-51.391,-5.415
0.182,10.340,4.410,4.410,73.095,-51.477,-5.436
0.183,10.473,4.369,4.369,73.043,-51.596,-5.467
0.184,10.647,4.314,4.314,72.977,-51.751,-5.511
0.186,10.859,4.250,4.250,72.897,-51.939,-5.566
0.187,11.102,4.181,4.181,72.806,-52.155,-5.629
0.188,11.372,4.111,4.111,72.706,-52.395,-5.701
0.189,11.661,4.044,4.044,72.598,-52.652,-5.777
0.191,11.965,3.984,3.984,72.484,-52.923,-5.858
0.192,12.278,3.936,3.936,72.366,-53.201,-5.940
0.193,12.595,3.903,3.903,72.247,-53.482,-6.023
0.194,12.908,3.883,3.883,72.128,-53.761,-6.104
0.196,13.214,3.876,3.876,72.011,-54.032,-6.181
0.197,13.505,3.878,3.878,71.899,-54.291,-6.253
0.198,13.777,3.889,3.889,71.792,-54.532,-6.318
0.199,14.024,3.905,3.905,71.693,-54.751,-6.374
0.201,14.240,3.926,3.926,71.604,-54.943,-6.419
0.202,14.425,3.950,3.950,71.525,-55.107,-6.454
0.203,14.582,3.974,3.974,71.455,-55.245,-6.479
0.205,14.716,3.997,3.997,71.393,-55.362,-6.496
0.206,14.828,4.019,4.019,71.337,-55.459,-6.507
0.207,14.924,4.038,4.038,71.286,-55.540,-6.513
0.208,15.006,4.052,4.052,71.240,-55.608,-6.515
0.210,15.078,4.061,4.061,71.196,-55.665,-6.514
0.211,15.142,4.062,4.062,71.154,-55.714,-6.513
0.212,15.203,4.056,4.056,71.113,-55.758,-6.511
0.213,15.263,4.042,4.042,71.071,-55.801,-6.512
0.215,15.324,4.020,4.020,71.028,-55.844,-6.515
0.216,15.392,3.995,3.995,70.981,-55.892,-6.523
0.217,15.467,3.969,3.969,70.930,-55.946,-6.537
0.218,15.553,3.944,3.944,70.874,-56.008,-6.558
0.220,15.648,3.925,3.925,70.814,-56.076,-6.585
0.221,15.750,3.912,3.912,70.749,-56.147,-6.619
0.222,15.859,3.910,3.910,70.679,-56.220,-6.660
0.223,15.973,3.920,3.920,70.605,-56.292,-6.708
0.225,16.091,3.940,3.940,70.526,-56.361,-6.762
0.226,16.212,3.968,3.968,70.443,-56.425,-6.824
0.227,16.336,3.999,3.999,70.355,-56.481,-6.892
0.228,16.463,4.031,4.031,70.264,-56.527,-6.966
0.230,16.593,4.060,4.060,70.169,-56.562,-7.048
0.231,16.728,4.082,4.082,70.070,-56.582,-7.136
0.232,16.868,4.095,4.095,69.967,-56.586,-7.231
0.233,17.016,4.096,4.096,69.860,-56.571,-7.333
0.235,17.175,4.086,4.086,69.750,-56.537,-7.442
0.236,17.346,4.067,4.067,69.637,-56.484,-7.558
0.237,17.529,4.043,4.043,69.522,-56.414,-7.683
0.238,17.725,4.017,4.017,69.405,-56.332,-7.817
0.240,17.933,3.990,3.990,69.288,-56.237,-7.961
0.241,18.152,3.966,3.966,69.171,-56.134,-8.115
0.242,18.383,3.948,3.948,69.054,-56.024,-8.281
0.243,18.624,3.938,3.938,68.940,-55.909,-8.458
0.245,18.874,3.937,3.937,68.827,-55.792,-8.649
0.246,19.134,3.944,3.944,68.717,-55.675,-8.854
0.247,19.402,3.958,3.958,68.611,-55.561,-9.072
0.248,19.680,3.980,3.980,68.510,-55.452,-9.306
0.250,19.967,4.009,4.009,68.413,-55.349,-9.556
0.251,20.263,4.045,4.045,68.322,-55.256,-9.823
0.252,20.568,4.086,4.086,68.238,-55.172,-10.103
0.253,20.879,4.133,4.133,68.159,-55.097,-10.395
0.255,21.194,4.185,4.185,68.087,-55.031,-10.694
0.256,21.510,4.242,4.242,68.021,-54.972,-10.997
0.257,21.823,4.303,4.303,67.962,-54.921,-11.300
0.258,22.132,4.367,4.367,67.909,-54.875,-11.601
0.260,22.432,4.433,4.433,67.863,-54.836,-11.895
0.261,22.721,4.503,4.503,67.823,-54.802,-12.180
0.262,22.996,4.573,4.573,67.791,-54.773,-12.451
0.263,23.253,4.645,4.645,67.766,-54.748,-12.705
0.265,23.488,4.717,4.717,67.747,-54.727,-12.939
0.266,23.700,4.788,4.788,67.736,-54.708,-13.150
0.267,23.885,4.855,4.855,67.732,-54.692,-13.334
0.269,24.041,4.918,4.918,67.735,-54.678,-13.490
0.270,24.172,4.974,4.974,67.743,-54.665,-13.620
0.271,24.279,5.023,5.023,67.754,-54.655,-13.726
0.272,24.365,5.063,5.063,67.766,-54.647,-13.810
0.274,24.431,5.092,5.092,67.779,-54.641,-13.874
0.275,24.479,5.111,5.111,67.791,-54.636,-13.921
0.276,24.511,5.121,5.121,67.799,-54.634,-13.952
0.277,24.529,5.126,5.126,67.803,-54.633,-13.969
0.279,24.535,5.125,5.125,67.801,-54.635,-13.974
0.280,24.546,5.123,5.123,67.790,-54.638,-13.970
0.281,24.570,5.119,5.119,67.770,-54.644,-13.958
0.282,24.606,5.117,5.117,67.739,-54.651,-13.941
0.284,24.656,5.117,5.117,67.696,-54.660,-13.920
0.285,24.718,5.121,5.121,67.639,-54.671,-13.897
0.286,24.792,5.127,5.127,67.570,-54.685,-13.874
0.287,24.876,5.135,5.135,67.490,-54.703,-13.852
0.289,24.969,5.142,5.142,67.403,-54.725,-13.831
0.290,25.069,5.150,5.150,67.308,-54.752,-13.813
0.291,25.175,5.156,5.156,67.209,-54.786,-13.799
0.292,25.286,5.160,5.160,67.106,-54.826,-13.790
0.294,25.400,5.161,5.161,67.002,-54.874,-13.787
0.295,25.518,5.158,5.158,66.899,-54.931,-13.792
0.296,25.640,5.151,5.151,66.797,-54.997,-13.805
0.297,25.766,5.141,5.141,66.699,-55.073,-13.828
0.299,25.897,5.128,5.128,66.607,-55.160,-13.862
0.300,26.035,5.111,5.111,66.522,-55.258,-13.908
0.301,26.182,5.091,5.091,66.445,-55.369,-13.966
0.302,26.337,5.068,5.068,66.378,-55.490,-14.036
0.304,26.499,5.042,5.042,66.319,-55.619,-14.114
0.305,26.667,5.013,5.013,66.268,-55.754,-14.200
0.306,26.837,4.982,4.982,66.225,-55.891,-14.290
0.307,27.007,4.950,4.950,66.190,-56.029,-14.382
0.309,27.174,4.916,4.916,66.161,-56.166,-14.475
0.310,27.336,4.881,4.881,66.139,-56.297,-14.566
0.311,27.489,4.846,4.846,66.124,-56.422,-14.653
0.312,27.630,4.812,4.812,66.114,-56.538,-14.734
0.314,27.757,4.779,4.779,66.110,-56.642,-14.806
0.315,27.866,4.747,4.747,66.111,-56.732,-14.868
0.316,27.954,4.718,4.718,66.117,-56.805,-14.916
0.317,28.019,4.693,4.693,66.127,-56.860,-14.950
0.319,28.062,4.672,4.672,66.140,-56.896,-14.970
0.320,28.089,4.657,4.657,66.156,-56.916,-14.978
0.321,28.107,4.648,4.648,66.172,-56.923,-14.976
0.322,28.125,4.646,4.647,66.188,-56.919,-14.967
0.324,28.148,4.654,4.654,66.202,-56.908,-14.953
0.325,28.173,4.668,4.668,66.213,-56.891,-14.938
0.326,28.198,4.688,4.688,66.218,-56.872,-14.922
0.327,28.221,4.710,4.710,66.218,-56.853,-14.909
0.329,28.241,4.731,4.730,66.210,-56.836,-14.901
0.330,28.261,4.747,4.747,66.194,-56.825,-14.901
0.331,28.289,4.757,4.757,66.167,-56.822,-14.911
0.332,28.334,4.757,4.757,66.129,-56.830,-14.933
0.334,28.400,4.744,4.745,66.078,-56.851,-14.969
0.335,28.491,4.718,4.718,66.014,-56.886,-15.022
0.336,28.604,4.680,4.680,65.937,-56.936,-15.088
0.338,28.738,4.632,4.633,65.848,-57.000,-15.166
0.339,28.892,4.577,4.579,65.748,-57.078,-15.254
0.340,29.064,4.518,4.520,65.639,-57.168,-15.350
0.341,29.251,4.457,4.458,65.520,-57.272,-15.453
0.343,29.454,4.396,4.396,65.394,-57.387,-15.560
0.344,29.668,4.337,4.337,65.259,-57.515,-15.669
0.345,29.894,4.283,4.281,65.119,-57.654,-15.778
0.346,30.130,4.234,4.231,64.973,-57.804,-15.887
0.348,30.374,4.192,4.188,64.822,-57.964,-15.992
0.349,30.624,4.158,4.153,64.668,-58.134,-16.092
0.350,30.880,4.133,4.128,64.511,-58.314,-16.184
0.351,31.141,4.118,4.113,64.351,-58.503,-16.268
0.353,31.406,4.114,4.111,64.192,-58.699,-16.344
0.354,31.672,4.122,4.123,64.032,-58.900,-16.413
0.355,31.938,4.143,4.149,63.875,-59.106,-16.476
0.356,32.202,4.174,4.186,63.721,-59.313,-16.534
0.358,32.463,4.212,4.231,63.571,-59.520,-16.587
0.359,32.719,4.256,4.281,63.428,-59.726,-16.637
0.360,32.967,4.303,4.334,63.291,-59.928,-16.684
0.361,33.206,4.350,4.386,63.163,-60.124,-16.730
0.363,33.434,4.395,4.434,63.045,-60.314,-16.775
0.364,33.649,4.436,4.475,62.938,-60.495,-16.820
0.365,33.849,4.471,4.508,62.844,-60.665,-16.866
0.366,34.032,4.501,4.534,62.763,-60.822,-16.914
0.368,34.198,4.526,4.554,62.697,-60.966,-16.965
0.369,34.348,4.548,4.569,62.645,-61.095,-17.020
0.370,34.484,4.567,4.582,62.605,-61.212,-17.077
0.371,34.609,4.584,4.592,62.575,-61.317,-17.137
0.373,34.726,4.599,4.603,62.553,-61.412,-17.200
0.374,34.835,4.615,4.615,62.539,-61.498,-17.267
0.375,34.940,4.631,4.629,62.528,-61.576,-17.336
0.376,35.041,4.647,4.645,62.521,-61.647,-17.408
0.378,35.141,4.663,4.661,62.515,-61.712,-17.484
0.379,35.240,4.679,4.677,62.507,-61.772,-17.562
0.380,35.339,4.693,4.693,62.498,-61.829,-17.642
0.381,35.440,4.706,4.707,62.483,-61.884,-17.726
0.383,35.544,4.717,4.718,62.462,-61.937,-17.813
0.384,35.652,4.726,4.726,62.433,-61.991,-17.902
0.385,35.765,4.732,4.730,62.395,-62.045,-17.994
0.386,35.882,4.737,4.731,62.350,-62.100,-18.087
0.388,36.004,4.741,4.732,62.297,-62.155,-18.182
0.389,36.128,4.745,4.733,62.240,-62.211,-18.277
0.390,36.255,4.749,4.736,62.177,-62.267,-18.372
0.391,36.384,4.755,4.743,62.111,-62.323,-18.467
0.393,36.512,4.762,4.755,62.043,-62.381,-18.560
0.394,36.641,4.773,4.773,61.973,-62.438,-18.651
0.395,36.768,4.786,4.799,61.902,-62.496,-18.739
0.396,36.892,4.803,4.832,61.832,-62.554,-18.824
0.398,37.014,4.821,4.869,61.764,-62.612,-18.905
0.399,37.130,4.842,4.909,61.698,-62.671,-18.982
0.400,37.242,4.863,4.951,61.636,-62.730,-19.053
0.402,37.347,4.885,4.993,61.578,-62.789,-19.119
0.403,37.447,4.908,5.033,61.525,-62.848,-19.179
0.404,37.541,4.929,5.069,61.476,-62.906,-19.234
0.405,37.629,4.950,5.101,61.431,-62.963,-19.285
0.407,37.712,4.969,5.127,61.390,-63.018,-19.330
0.408,37.789,4.987,5.150,61.352,-63.071,-19.372
0.409,37.860,5.004,5.168,61.319,-63.122,-19.409
0.410,37.925,5.019,5.183,61.289,-63.169,-19.442
0.412,37.984,5.033,5.194,61.262,-63.213,-19.472
0.413,38.037,5.045,5.203,61.239,-63.252,-19.498
0.414,38.084,5.055,5.210,61.219,-63.288,-19.521
0.415,38.124,5.064,5.214,61.203,-63.318,-19.542
0.417,38.158,5.070,5.217,61.189,-63.344,-19.559
0.418,38.185,5.075,5.219,61.178,-63.363,-19.575
0.419,38.207,5.079,5.220,61.169,-63.378,-19.588
0.420,38.225,5.081,5.220,61.163,-63.390,-19.601
0.422,38.241,5.082,5.219,61.158,-63.399,-19.613
0.423,38.256,5.082,5.219,61.155,-63.408,-19.624
0.424,38.272,5.082,5.219,61.153,-63.417,-19.637
0.425,38.289,5.080,5.219,61.151,-63.428,-19.650
0.427,38.310,5.078,5.220,61.149,-63.442,-19.665
0.428,38.335,5.076,5.221,61.147,-63.460,-19.682
0.429,38.366,5.073,5.222,61.145,-63.484,-19.703
0.430,38.405,5.071,5.223,61.141,-63.515,-19.726
0.432,38.454,5.069,5.224,61.136,-63.554,-19.754
0.433,38.512,5.067,5.225,61.129,-63.603,-19.786
0.434,38.583,5.066,5.226,61.120,-63.662,-19.824
0.435,38.665,5.066,5.226,61.109,-63.732,-19.866
0.437,38.758,5.066,5.226,61.095,-63.810,-19.913
0.438,38.859,5.068,5.226,61.080,-63.897,-19.965
0.439,38.968,5.071,5.227,61.064,-63.989,-20.020
0.440,39.084,5.076,5.230,61.046,-64.087,-20.078
0.442,39.204,5.082,5.234,61.027,-64.189,-20.139
0.443,39.327,5.089,5.241,61.008,-64.293,-20.202
0.444,39.453,5.099,5.251,60.988,-64.399,-20.267
0.445,39.579,5.110,5.264,60.967,-64.504,-20.334
0.447,39.705,5.124,5.281,60.947,-64.608,-20.401
0.448,39.828,5.139,5.301,60.926,-64.709,-20.469
0.449,39.948,5.156,5.323,60.906,-64.806,-20.536
0.450,40.064,5.175,5.347,60.887,-64.898,-20.603
0.452,40.173,5.195,5.372,60.868,-64.984,-20.669
0.453,40.278,5.217,5.399,60.850,-65.064,-20.734
0.454,40.377,5.241,5.426,60.832,-65.137,-20.798
0.455,40.471,5.266,5.454,60.815,-65.206,-20.860
0.457,40.559,5.292,5.482,60.798,-65.269,-20.920
0.458,40.643,5.319,5.508,60.781,-65.327,-20.978
0.459,40.721,5.345,5.534,60.765,-65.380,-21.033
0.460,40.794,5.370,5.557,60.748,-65.428,-21.086
0.462,40.863,5.394,5.578,60.731,-65.471,-21.135
0.463,40.926,5.415,5.597,60.714,-65.511,-21.182
0.464,40.984,5.433,5.611,60.696,-65.546,-21.225
0.465,41.038,5.448,5.622,60.678,-65.577,-21.265
0.467,41.087,5.459,5.630,60.660,-65.605,-21.300
0.468,41.131,5.467,5.634,60.641,-65.629,-21.332
0.469,41.169,5.473,5.637,60.621,-65.649,-21.359
0.471,41.203,5.476,5.638,60.603,-65.665,-21.381
0.472,41.230,5.479,5.640,60.587,-65.678,-21.399
0.473,41.251,5.480,5.642,60.573,-65.687,-21.412
0.474,41.265,5.482,5.645,60.562,-65.692,-21.420
0.476,41.272,5.483,5.651,60.556,-65.693,-21.423
0.477,41.277,5.484,5.659,60.554,-65.689,-21.420
0.478,41.289,5.484,5.667,60.558,-65.682,-21.411
0.479,41.310,5.482,5.674,60.569,-65.670,-21.397
0.481,41.342,5.477,5.678,60.587,-65.653,-21.377
0.482,41.385,5.467,5.677,60.613,-65.633,-21.351
0.483,41.439,5.451,5.670,60.648,-65.607,-21.318
0.484,41.505,5.429,5.656,60.692,-65.577,-21.279
0.486,41.580,5.399,5.633,60.743,-65.544,-21.235
0.487,41.658,5.363,5.601,60.797,-65.509,-21.191
0.488,41.734,5.323,5.564,60.851,-65.476,-21.148
0.489,41.804,5.281,5.523,60.900,-65.445,-21.109
0.491,41.862,5.240,5.481,60.942,-65.418,-21.079
0.492,41.904,5.202,5.442,60.972,-65.398,-21.058
0.493,41.923,5.170,5.406,60.986,-65.387,-21.052
0.494,41.934,5.146,5.377,60.982,-65.386,-21.061
0.496,41.976,5.133,5.357,60.955,-65.398,-21.090
0.497,42.054,5.132,5.348,60.901,-65.424,-21.142
0.498,42.176,5.144,5.351,60.817,-65.466,-21.219
0.499,42.345,5.169,5.367,60.699,-65.527,-21.324
0.501,42.567,5.207,5.396,60.543,-65.608,-21.460
0.502,42.840,5.259,5.441,60.352,-65.708,-21.627
0.503,43.156,5.326,5.501,60.129,-65.825,-21.818
0.504,43.507,5.407,5.579,59.882,-65.955,-22.030
0.506,43.884,5.503,5.674,59.616,-66.096,-22.257
0.507,44.279,5.612,5.784,59.337,-66.243,-22.495
0.508,44.683,5.728,5.902,59.052,-66.395,-22.738
0.509,45.089,5.846,6.022,58.765,-66.548,-22.982
0.511,45.488,5.959,6.138,58.483,-66.698,-23.221
0.512,45.872,6.062,6.241,58.212,-66.844,-23.450
0.513,46.232,6.150,6.326,57.958,-66.980,-23.665
0.514,46.560,6.217,6.386,57.726,-67.106,-23.860
0.516,46.847,6.257,6.413,57.523,-67.216,-24.031
0.517,47.086,6.271,6.409,57.355,-67.309,-24.173
0.518,47.272,6.263,6.380,57.224,-67.382,-24.282
0.519,47.409,6.241,6.334,57.127,-67.438,-24.362
0.521,47.502,6.210,6.279,57.062,-67.478,-24.415
0.522,47.558,6.176,6.223,57.023,-67.504,-24.445
0.523,47.580,6.147,6.173,57.008,-67.518,-24.455
0.524,47.591,6.129,6.137,57.012,-67.522,-24.446
0.526,47.621,6.127,6.123,57.032,-67.519,-24.424
0.527,47.668,6.143,6.134,57.063,-67.509,-24.390
0.528,47.728,6.175,6.164,57.103,-67.496,-24.347
0.529,47.795,6.218,6.210,57.148,-67.481,-24.300
