"T","Distance","Radius","FreeRadius","X","Y","Z"
0.000,0.000,3.020,3.020,183.051,160.248,171.999
0.001,0.050,2.993,2.993,183.037,160.204,172.017
0.003,0.097,2.967,2.967,183.024,160.162,172.034
0.004,0.140,2.941,2.941,183.012,160.124,172.051
0.005,0.176,2.918,2.918,183.000,160.095,172.068
0.006,0.204,2.897,2.897,182.988,160.075,172.084
0.008,0.224,2.879,2.879,182.978,160.067,172.099
0.009,0.243,2.864,2.864,182.970,160.074,172.114
0.010,0.271,2.854,2.854,182.963,160.098,172.128
0.012,0.317,2.848,2.848,182.957,160.142,172.141
0.013,0.384,2.846,2.846,182.954,160.207,172.153
0.014,0.475,2.846,2.846,182.953,160.297,172.164
0.016,0.592,2.848,2.848,182.954,160.415,172.174
0.017,0.739,2.851,2.851,182.958,160.560,172.182
0.018,0.911,2.853,2.853,182.965,160.733,172.189
0.019,1.106,2.854,2.854,182.974,160.927,172.194
0.021,1.319,2.853,2.853,182.985,161.140,172.199
0.022,1.545,2.849,2.849,182.998,161.365,172.202
0.023,1.780,2.843,2.843,183.012,161.600,172.205
0.025,2.020,2.836,2.836,183.028,161.839,172.208
0.026,2.259,2.826,2.826,183.044,162.079,172.210
0.027,2.495,2.816,2.816,183.062,162.314,172.212
0.029,2.723,2.804,2.804,183.080,162.540,172.214
0.030,2.937,2.792,2.792,183.098,162.754,172.216
0.031,3.134,2.780,2.780,183.116,162.950,172.218
0.032,3.310,2.769,2.769,183.134,163.125,172.221
0.034,3.464,2.760,2.760,183.151,163.278,172.223
0.035,3.599,2.754,2.754,183.167,163.413,172.226
0.036,3.719,2.752,2.752,183.180,163.532,172.228
0.038,3.827,2.757,2.757,183.189,163.640,172.229
0.039,3.927,2.768,2.768,183.194,163.739,172.228
0.040,4.021,2.788,2.788,183.193,163.833,172.225
0.042,4.114,2.817,2.817,183.186,163.926,172.219
0.043,4.210,2.855,2.855,183.172,164.020,172.211
0.044,4.312,2.900,2.900,183.150,164.119,172.199
0.045,4.425,2.951,2.951,183.120,164.226,172.183
0.047,4.552,3.007,3.007,183.079,164.345,172.162
0.048,4.698,3.066,3.066,183.027,164.480,172.137
0.049,4.864,3.127,3.127,182.965,164.630,172.106
0.051,5.045,3.189,3.189,182.894,164.793,172.072
0.052,5.238,3.250,3.250,182.818,164.966,172.033
0.053,5.440,3.309,3.309,182.737,165.146,171.992
0.055,5.647,3.365,3.365,182.654,165.330,171.947
0.056,5.854,3.415,3.415,182.571,165.515,171.902
0.057,6.058,3.460,3.460,182.491,165.696,171.854
0.058,6.255,3.497,3.497,182.415,165.872,171.807
0.060,6.442,3.524,3.524,182.346,166.039,171.759
0.061,6.615,3.541,3.541,182.286,166.194,171.712
0.062,6.770,3.549,3.549,182.237,166.334,171.666
0.064,6.904,3.548,3.548,182.202,166.456,171.622
0.065,7.015,3.544,3.544,182.181,166.557,171.580
0.066,7.108,3.538,3.538,182.173,166.639,171.540
0.068,7.184,3.534,3.534,182.175,166.705,171.501
0.069,7.249,3.534,3.534,182.186,166.756,171.461
0.070,7.308,3.543,3.543,182.204,166.794,171.421
0.071,7.362,3.562,3.562,182.225,166.821,171.378
0.073,7.416,3.592,3.592,182.248,166.840,171.334
0.074,7.471,3.629,3.629,182.271,166.852,171.285
0.075,7.528,3.670,3.670,182.292,166.859,171.232
0.077,7.588,3.712,3.712,182.308,166.863,171.175
0.078,7.653,3.751,3.751,182.317,166.867,171.111
0.079,7.724,3.784,3.784,182.317,166.873,171.040
0.081,7.803,3.809,3.809,182.306,166.882,170.962
0.082,7.891,3.821,3.821,182.285,166.895,170.877
0.083,7.989,3.823,3.823,182.255,166.914,170.787
0.084,8.094,3.816,3.816,182.218,166.940,170.691
0.086,8.207,3.805,3.805,182.174,166.973,170.593
0.087,8.327,3.791,3.791,182.126,167.015,170.491
0.088,8.453,3.777,3.777,182.074,167.066,170.388
0.090,8.585,3.767,3.767,182.021,167.128,170.285
0.091,8.722,3.762,3.762,181.966,167.202,170.183
0.092,8.866,3.766,3.766,181.913,167.289,170.082
0.094,9.015,3.777,3.777,181.861,167.389,169.983
0.095,9.172,3.794,3.794,181.813,167.504,169.889
0.096,9.336,3.816,3.816,181.769,167.634,169.800
0.097,9.507,3.841,3.841,181.731,167.779,169.715
0.099,9.685,3.868,3.868,181.697,167.934,169.636
0.100,9.867,3.895,3.895,181.667,168.098,169.562
0.101,10.052,3.922,3.922,181.642,168.267,169.493
0.103,10.236,3.947,3.947,181.619,168.438,169.428
0.104,10.418,3.970,3.970,181.600,168.609,169.368
0.105,10.595,3.992,3.992,181.584,168.776,169.313
0.106,10.763,4.012,4.012,181.571,168.936,169.262
0.108,10.921,4.032,4.032,181.559,169.087,169.216
0.109,11.066,4.050,4.050,181.550,169.225,169.174
0.110,11.195,4.067,4.067,181.542,169.348,169.136
0.112,11.305,4.084,4.084,181.535,169.453,169.102
0.113,11.396,4.100,4.100,181.528,169.538,169.072
0.114,11.468,4.115,4.115,181.523,169.605,169.046
0.116,11.525,4.128,4.128,181.518,169.657,169.023
0.117,11.566,4.140,4.140,181.514,169.694,169.004
0.118,11.596,4.151,4.151,181.512,169.718,168.988
0.119,11.614,4.159,4.159,181.509,169.730,168.974
0.121,11.626,4.164,4.164,181.508,169.733,168.963
0.122,11.635,4.167,4.167,181.507,169.728,168.955
0.123,11.649,4.167,4.167,181.507,169.717,168.949
0.125,11.666,4.166,4.166,181.508,169.700,168.944
0.126,11.685,4.164,4.164,181.509,169.681,168.942
0.127,11.707,4.161,4.161,181.512,169.659,168.941
0.129,11.728,4.158,4.158,181.514,169.638,168.941
0.130,11.749,4.156,4.156,181.518,169.618,168.942
0.131,11.767,4.155,4.155,181.521,169.600,168.945
0.132,11.782,4.157,4.157,181.525,169.585,168.947
0.134,11.793,4.159,4.159,181.528,169.576,168.950
0.135,11.798,4.162,4.162,181.531,169.573,168.953
0.136,11.804,4.164,4.164,181.534,169.577,168.956
0.138,11.817,4.165,4.165,181.535,169.589,168.959
0.139,11.839,4.163,4.163,181.536,169.612,168.960
0.140,11.873,4.157,4.157,181.536,169.645,168.961
0.142,11.919,4.147,4.147,181.535,169.691,168.961
0.143,11.978,4.132,4.132,181.532,169.750,168.959
0.144,12.052,4.112,4.112,181.527,169.824,168.956
0.145,12.140,4.090,4.090,181.522,169.912,168.953
0.147,12.241,4.067,4.067,181.518,170.012,168.951
0.148,12.353,4.044,4.044,181.514,170.124,168.953
0.149,12.476,4.023,4.023,181.512,170.247,168.960
0.151,12.609,4.005,4.005,181.514,170.379,168.973
0.152,12.751,3.991,3.991,181.520,170.520,168.995
0.153,12.903,3.983,3.983,181.530,170.669,169.026
0.155,13.065,3.981,3.980,181.547,170.823,169.070
0.156,13.237,3.984,3.984,181.571,170.984,169.126
0.157,13.419,3.993,3.993,181.602,171.149,169.198
0.158,13.613,4.008,4.008,181.642,171.317,169.286
0.160,13.820,4.030,4.030,181.692,171.487,169.391
0.161,14.038,4.058,4.058,181.750,171.660,169.513
0.162,14.266,4.093,4.093,181.815,171.833,169.645
0.164,14.500,4.133,4.134,181.884,172.007,169.785
0.165,14.737,4.177,4.177,181.956,172.182,169.929
0.166,14.974,4.220,4.222,182.028,172.356,170.071
0.168,15.206,4.263,4.264,182.098,172.530,170.209
0.169,15.432,4.301,4.302,182.165,172.702,170.339
0.170,15.647,4.333,4.334,182.226,172.873,170.455
0.171,15.850,4.356,4.356,182.279,173.042,170.554
0.173,16.039,4.368,4.368,182.323,173.207,170.633
0.174,16.213,4.371,4.369,182.355,173.370,170.686
0.175,16.375,4.368,4.364,182.374,173.529,170.711
0.177,16.530,4.360,4.356,182.379,173.684,170.707
0.178,16.682,4.351,4.346,182.372,173.833,170.678
0.179,16.834,4.343,4.339,182.357,173.976,170.627
0.181,16.988,4.339,4.336,182.333,174.111,170.559
0.182,17.142,4.342,4.342,182.304,174.238,170.476
0.183,17.295,4.354,4.358,182.271,174.355,170.383
0.184,17.444,4.373,4.382,182.237,174.461,170.283
0.186,17.588,4.397,4.411,182.203,174.556,170.181
0.187,17.723,4.423,4.443,182.171,174.638,170.078
0.188,17.846,4.448,4.473,182.143,174.706,169.980
0.190,17.953,4.471,4.500,182.122,174.759,169.890
0.191,18.041,4.489,4.520,182.109,174.796,169.811
0.192,18.111,4.499,4.530,182.104,174.818,169.745
0.194,18.166,4.501,4.529,182.105,174.829,169.690
0.195,18.213,4.495,4.519,182.109,174.833,169.645
0.196,18.252,4.483,4.502,182.115,174.832,169.606
0.197,18.287,4.467,4.481,182.120,174.832,169.571
0.199,18.319,4.449,4.457,182.121,174.835,169.540
0.200,18.352,4.430,4.433,182.115,174.846,169.508
0.201,18.395,4.411,4.412,182.101,174.869,169.475
0.203,18.454,4.395,4.395,182.076,174.907,169.438
0.204,18.536,4.383,4.385,182.037,174.965,169.395
0.205,18.647,4.375,4.380,181.981,175.046,169.343
0.206,18.791,4.372,4.382,181.907,175.153,169.281
0.208,18.972,4.375,4.391,181.813,175.290,169.208
0.209,19.185,4.384,4.407,181.702,175.451,169.125
0.210,19.423,4.400,4.430,181.578,175.632,169.034
0.212,19.679,4.425,4.460,181.443,175.828,168.937
0.213,19.948,4.458,4.497,181.301,176.033,168.838
0.214,20.223,4.498,4.540,181.155,176.243,168.737
0.216,20.497,4.542,4.587,181.010,176.453,168.638
0.217,20.765,4.589,4.636,180.867,176.658,168.542
0.218,21.018,4.634,4.684,180.732,176.852,168.451
0.219,21.252,4.677,4.729,180.606,177.032,168.368
0.221,21.460,4.713,4.768,180.494,177.190,168.295
0.222,21.635,4.741,4.800,180.399,177.324,168.235
0.223,21.771,4.758,4.823,180.323,177.428,168.188
0.225,21.872,4.766,4.838,180.266,177.504,168.154
0.226,21.941,4.765,4.846,180.226,177.555,168.133
0.227,21.982,4.759,4.849,180.200,177.586,168.123
0.229,22.001,4.748,4.849,180.187,177.599,168.122
0.230,22.009,4.736,4.848,180.184,177.598,168.130
0.231,22.029,4.722,4.849,180.190,177.586,168.144
0.232,22.059,4.710,4.851,180.201,177.566,168.165
0.234,22.097,4.701,4.858,180.217,177.543,168.189
0.235,22.138,4.694,4.867,180.235,177.519,168.217
0.236,22.178,4.690,4.878,180.252,177.498,168.247
0.238,22.215,4.687,4.890,180.267,177.484,168.278
0.239,22.248,4.686,4.901,180.279,177.478,168.308
0.240,22.277,4.685,4.910,180.285,177.484,168.336
0.242,22.309,4.685,4.916,180.286,177.499,168.363
0.243,22.344,4.684,4.917,180.283,177.524,168.389
0.244,22.386,4.683,4.913,180.275,177.558,168.412
0.245,22.435,4.681,4.906,180.262,177.601,168.432
0.247,22.492,4.678,4.894,180.245,177.652,168.450
0.248,22.556,4.672,4.880,180.224,177.711,168.465
0.249,22.628,4.662,4.864,180.198,177.777,168.476
0.251,22.707,4.650,4.846,180.169,177.850,168.484
0.252,22.793,4.633,4.828,180.135,177.929,168.488
0.253,22.886,4.611,4.809,180.097,178.014,168.488
0.255,22.986,4.585,4.790,180.056,178.104,168.483
0.256,23.091,4.555,4.771,180.011,178.199,168.474
0.257,23.199,4.524,4.751,179.964,178.296,168.461
0.258,23.309,4.492,4.729,179.918,178.394,168.444
0.260,23.417,4.461,4.705,179.872,178.490,168.424
0.261,23.522,4.432,4.679,179.828,178.582,168.402
0.262,23.621,4.406,4.649,179.788,178.669,168.377
0.264,23.712,4.384,4.616,179.753,178.749,168.351
0.265,23.793,4.368,4.580,179.725,178.820,168.324
0.266,23.862,4.355,4.543,179.705,178.880,168.295
0.268,23.918,4.348,4.508,179.693,178.927,168.267
0.269,23.961,4.344,4.475,179.692,178.958,168.238
0.270,23.994,4.345,4.447,179.703,178.973,168.210
0.271,24.030,4.351,4.425,179.726,178.971,168.183
0.273,24.072,4.360,4.411,179.757,178.957,168.157
0.274,24.120,4.373,4.406,179.791,178.935,168.132
0.275,24.168,4.387,4.407,179.825,178.911,168.109
0.277,24.210,4.399,4.409,179.854,178.890,168.086
0.278,24.243,4.406,4.410,179.875,178.875,168.065
0.279,24.264,4.404,4.406,179.882,178.873,168.045
0.281,24.290,4.392,4.392,179.872,178.888,168.027
0.282,24.341,4.365,4.364,179.841,178.925,168.011
0.283,24.428,4.320,4.320,179.784,178.990,167.996
0.284,24.558,4.258,4.258,179.698,179.086,167.982
0.286,24.738,4.183,4.183,179.578,179.219,167.971
0.287,24.972,4.101,4.101,179.421,179.392,167.961
0.288,25.253,4.017,4.017,179.232,179.600,167.953
0.290,25.572,3.937,3.937,179.018,179.837,167.947
0.291,25.921,3.867,3.867,178.784,180.095,167.943
0.292,26.289,3.813,3.813,178.536,180.368,167.941
0.294,26.669,3.779,3.779,178.281,180.650,167.940
0.295,27.051,3.768,3.768,178.025,180.933,167.942
0.296,27.426,3.775,3.775,177.773,181.211,167.945
0.297,27.785,3.797,3.797,177.533,181.477,167.951
0.299,28.118,3.829,3.829,177.310,181.725,167.958
0.300,28.417,3.867,3.868,177.110,181.948,167.967
0.301,28.673,3.908,3.909,176.940,182.139,167.978
0.303,28.878,3.948,3.948,176.805,182.292,167.991
0.304,29.034,3.982,3.982,176.702,182.408,168.005
0.305,29.148,4.010,4.009,176.629,182.493,168.020
0.306,29.226,4.033,4.031,176.579,182.552,168.036
0.308,29.276,4.051,4.049,176.548,182.588,168.052
0.309,29.306,4.065,4.063,176.531,182.607,168.066
0.310,29.322,4.077,4.075,176.523,182.613,168.080
0.312,29.334,4.087,4.086,176.520,182.612,168.092
0.313,29.345,4.096,4.096,176.518,182.608,168.101
0.314,29.355,4.105,4.108,176.510,182.605,168.107
0.316,29.374,4.116,4.121,176.492,182.609,168.110
0.317,29.409,4.128,4.136,176.460,182.624,168.109
0.318,29.469,4.143,4.155,176.409,182.655,168.103
0.319,29.555,4.162,4.177,176.339,182.703,168.093
0.321,29.663,4.187,4.205,176.252,182.765,168.078
0.322,29.788,4.218,4.238,176.152,182.839,168.061
0.323,29.928,4.256,4.277,176.042,182.923,168.041
0.325,30.078,4.302,4.323,175.925,183.014,168.018
0.326,30.233,4.354,4.373,175.804,183.109,167.994
0.327,30.391,4.409,4.426,175.683,183.206,167.969
0.329,30.546,4.465,4.479,175.565,183.303,167.943
0.330,30.695,4.519,4.531,175.452,183.397,167.918
0.331,30.833,4.571,4.578,175.349,183.486,167.894
0.332,30.957,4.616,4.619,175.258,183.567,167.870
0.334,31.063,4.654,4.652,175.182,183.638,167.849
0.335,31.150,4.682,4.676,175.123,183.699,167.830
0.336,31.219,4.702,4.692,175.079,183.749,167.814
0.338,31.274,4.715,4.702,175.048,183.793,167.800
0.339,31.319,4.722,4.708,175.027,183.831,167.788
0.340,31.356,4.724,4.711,175.014,183.865,167.779
0.342,31.389,4.723,4.713,175.008,183.897,167.773
0.343,31.422,4.719,4.715,175.006,183.929,167.770
0.344,31.455,4.714,4.719,175.007,183.963,167.770
0.345,31.493,4.708,4.727,175.007,184.000,167.773
0.347,31.536,4.703,4.737,175.006,184.043,167.778
0.348,31.588,4.700,4.750,175.000,184.093,167.787
0.349,31.650,4.699,4.766,174.988,184.153,167.799
0.351,31.723,4.702,4.786,174.968,184.222,167.814
0.352,31.808,4.709,4.808,174.941,184.301,167.831
0.353,31.902,4.721,4.833,174.908,184.387,167.849
0.355,32.003,4.738,4.862,174.871,184.479,167.867
0.356,32.109,4.761,4.893,174.829,184.575,167.882
0.357,32.218,4.788,4.924,174.784,184.673,167.895
0.358,32.328,4.817,4.954,174.737,184.773,167.904
0.360,32.438,4.846,4.981,174.689,184.871,167.908
0.361,32.545,4.874,5.004,174.641,184.967,167.905
0.362,32.650,4.900,5.022,174.593,185.060,167.894
0.364,32.749,4.921,5.032,174.548,185.146,167.875
0.365,32.844,4.937,5.034,174.505,185.226,167.846
0.366,32.934,4.950,5.030,174.466,185.296,167.806
0.368,33.021,4.960,5.022,174.430,185.360,167.757
0.369,33.107,4.969,5.015,174.396,185.417,167.704
0.370,33.190,4.980,5.009,174.363,185.470,167.649
0.371,33.270,4.993,5.009,174.329,185.519,167.596
0.373,33.347,5.011,5.016,174.294,185.568,167.549
0.374,33.420,5.035,5.034,174.256,185.617,167.509
0.375,33.491,5.066,5.064,174.215,185.669,167.482
0.377,33.564,5.103,5.104,174.168,185.724,167.471
0.378,33.644,5.143,5.150,174.116,185.784,167.478
0.379,33.739,5.185,5.201,174.056,185.851,167.508
0.381,33.854,5.228,5.252,173.988,185.926,167.563
0.382,33.997,5.270,5.303,173.911,186.012,167.647
0.383,34.166,5.309,5.349,173.825,186.107,167.758
0.384,34.360,5.344,5.389,173.733,186.213,167.890
0.386,34.573,5.373,5.421,173.635,186.328,168.040
0.387,34.800,5.398,5.447,173.534,186.452,168.203
0.388,35.039,5.418,5.470,173.432,186.585,168.373
0.390,35.284,5.435,5.491,173.329,186.726,168.545
0.391,35.532,5.449,5.511,173.229,186.874,168.715
0.392,35.777,5.459,5.533,173.132,187.030,168.879
0.394,36.017,5.467,5.558,173.040,187.193,169.030
0.395,36.249,5.474,5.589,172.956,187.362,169.164
0.396,36.471,5.479,5.625,172.881,187.537,169.277
0.397,36.681,5.486,5.664,172.816,187.718,169.363
0.399,36.883,5.495,5.708,172.762,187.903,169.422
0.400,37.079,5.508,5.754,172.718,188.091,169.455
0.401,37.272,5.527,5.801,172.682,188.280,169.467
0.403,37.462,5.554,5.849,172.654,188.468,169.459
0.404,37.651,5.589,5.898,172.633,188.655,169.435
0.405,37.838,5.635,5.945,172.617,188.837,169.398
0.406,38.022,5.689,5.990,172.604,189.014,169.350
0.408,38.200,5.750,6.034,172.594,189.183,169.294
0.409,38.371,5.813,6.075,172.586,189.343,169.234
0.410,38.533,5.878,6.113,172.579,189.493,169.173
0.412,38.683,5.941,6.148,172.570,189.629,169.112
0.413,38.818,5.999,6.178,172.560,189.752,169.056
0.414,38.938,6.051,6.204,172.547,189.860,169.006
0.416,39.044,6.094,6.226,172.530,189.956,168.962
0.417,39.139,6.129,6.243,172.511,190.041,168.925
0.418,39.225,6.157,6.258,172.489,190.117,168.895
0.419,39.304,6.180,6.271,172.463,190.189,168.871
0.421,39.379,6.198,6.284,172.434,190.256,168.855
0.422,39.453,6.213,6.296,172.402,190.322,168.846
0.423,39.529,6.225,6.310,172.367,190.390,168.844
0.425,39.610,6.236,6.325,172.328,190.460,168.849
0.426,39.698,6.246,6.344,172.286,190.537,168.862
0.427,39.796,6.257,6.364,172.240,190.621,168.883
0.429,39.907,6.267,6.384,172.191,190.716,168.911
0.430,40.031,6.279,6.405,172.138,190.822,168.947
0.431,40.167,6.291,6.425,172.082,190.938,168.990
0.432,40.311,6.304,6.444,172.025,191.062,169.037
0.434,40.460,6.318,6.460,171.967,191.190,169.088
0.435,40.612,6.335,6.472,171.909,191.320,169.140
0.436,40.763,6.353,6.481,171.852,191.449,169.193
0.438,40.910,6.372,6.488,171.797,191.575,169.246
0.439,41.050,6.390,6.491,171.745,191.695,169.296
0.440,41.179,6.409,6.492,171.696,191.806,169.342
0.442,41.296,6.426,6.490,171.653,191.906,169.382
0.443,41.395,6.442,6.487,171.615,191.992,169.416
0.444,41.475,6.455,6.482,171.584,192.061,169.441
0.445,41.533,6.464,6.476,171.561,192.111,169.457
0.447,41.571,6.471,6.469,171.544,192.144,169.465
0.448,41.592,6.475,6.462,171.533,192.162,169.465
0.449,41.601,6.476,6.457,171.528,192.168,169.461
0.451,41.609,6.475,6.453,171.526,192.166,169.454
0.452,41.620,6.472,6.452,171.528,192.157,169.447
0.453,41.635,6.466,6.454,171.531,192.145,169.440
0.455,41.648,6.460,6.460,171.536,192.133,169.435
0.456,41.659,6.452,6.470,171.540,192.123,169.436
0.457,41.668,6.443,6.485,171.543,192.119,169.444
0.458,41.684,6.435,6.501,171.544,192.123,169.459
0.460,41.715,6.427,6.518,171.542,192.139,169.486
0.461,41.764,6.420,6.535,171.536,192.168,169.525
0.462,41.832,6.415,6.550,171.526,192.212,169.575
0.464,41.914,6.413,6.561,171.511,192.265,169.636
0.465,42.007,6.415,6.569,171.493,192.327,169.703
0.466,42.108,6.419,6.571,171.470,192.393,169.776
0.468,42.212,6.425,6.569,171.445,192.460,169.851
0.469,42.316,6.431,6.565,171.417,192.526,169.926
0.470,42.416,6.434,6.559,171.385,192.587,169.999
0.471,42.509,6.434,6.554,171.352,192.640,170.068
0.473,42.593,6.429,6.551,171.316,192.683,170.130
0.474,42.664,6.416,6.551,171.278,192.711,170.183
0.475,42.722,6.395,6.555,171.239,192.723,170.225
0.477,42.772,6.364,6.564,171.198,192.714,170.253
0.478,42.824,6.328,6.575,171.157,192.687,170.267
0.479,42.882,6.290,6.586,171.115,192.646,170.270
0.481,42.944,6.251,6.597,171.075,192.599,170.267
0.482,43.004,6.216,6.604,171.037,192.553,170.260
0.483,43.056,6.187,6.606,171.001,192.515,170.254
0.484,43.095,6.167,6.602,170.970,192.492,170.251
0.486,43.123,6.159,6.588,170.943,192.490,170.257
0.487,43.160,6.161,6.566,170.923,192.517,170.273
0.488,43.232,6.169,6.534,170.909,192.580,170.305
0.490,43.348,6.176,6.493,170.902,192.684,170.355
0.491,43.518,6.179,6.443,170.904,192.838,170.427
0.492,43.750,6.174,6.384,170.916,193.048,170.526
0.494,44.048,6.154,6.316,170.938,193.318,170.651
0.495,44.403,6.115,6.239,170.969,193.638,170.801
0.496,44.804,6.054,6.154,171.008,193.999,170.970
0.497,45.239,5.974,6.063,171.052,194.392,171.153
0.499,45.698,5.880,5.967,171.102,194.805,171.346
0.500,46.169,5.778,5.870,171.156,195.229,171.545
0.501,46.641,5.674,5.774,171.212,195.653,171.744
0.503,47.103,5.572,5.682,171.270,196.068,171.938
0.504,47.544,5.479,5.595,171.327,196.464,172.125
0.505,47.953,5.400,5.517,171.383,196.830,172.297
0.506,48.317,5.339,5.449,171.436,197.156,172.452
0.508,48.628,5.294,5.392,171.485,197.432,172.583
0.509,48.874,5.264,5.345,171.529,197.651,172.688
0.510,49.061,5.247,5.308,171.568,197.815,172.768
0.512,49.197,5.239,5.281,171.605,197.933,172.825
0.513,49.290,5.240,5.263,171.639,198.012,172.862
0.514,49.352,5.247,5.254,171.672,198.059,172.882
0.516,49.394,5.257,5.254,171.706,198.083,172.888
0.517,49.430,5.270,5.263,171.741,198.091,172.883
0.518,49.471,5.284,5.276,171.780,198.091,172.868
0.519,49.518,5.297,5.294,171.822,198.090,172.848
0.521,49.571,5.309,5.312,171.869,198.096,172.826
0.522,49.632,5.317,5.328,171.923,198.117,172.802
0.523,49.710,5.321,5.341,171.984,198.160,172.782
0.525,49.812,5.319,5.348,172.054,198.232,172.767
0.526,49.940,5.310,5.347,172.131,198.333,172.757
0.527,50.092,5.294,5.337,172.216,198.460,172.753
0.529,50.265,5.274,5.321,172.305,198.607,172.753
