"T","Distance","Radius","FreeRadius","X","Y","Z"
0.000,0.000,2.222,2.222,271.949,248.313,248.541
0.001,0.355,2.395,2.395,271.679,248.098,248.624
0.003,0.707,2.564,2.564,271.411,247.885,248.706
0.004,1.050,2.726,2.726,271.150,247.677,248.787
0.006,1.383,2.877,2.877,270.897,247.476,248.864
0.007,1.699,3.014,3.014,270.656,247.284,248.937
0.009,1.997,3.132,3.132,270.429,247.104,249.006
0.010,2.271,3.230,3.230,270.220,246.939,249.070
0.011,2.519,3.303,3.303,270.031,246.789,249.126
0.013,2.735,3.356,3.356,269.865,246.659,249.176
0.014,2.917,3.393,3.393,269.725,246.550,249.217
0.016,3.061,3.418,3.418,269.614,246.465,249.248
0.017,3.165,3.436,3.436,269.533,246.403,249.270
0.019,3.234,3.453,3.453,269.479,246.361,249.281
0.020,3.275,3.472,3.472,269.448,246.335,249.282
0.022,3.296,3.497,3.497,269.436,246.320,249.272
0.023,3.317,3.528,3.528,269.441,246.313,249.252
0.024,3.353,3.562,3.562,269.459,246.309,249.222
0.026,3.403,3.597,3.597,269.486,246.304,249.181
0.027,3.466,3.630,3.630,269.519,246.293,249.128
0.029,3.541,3.659,3.659,269.555,246.273,249.065
0.030,3.630,3.681,3.681,269.590,246.240,248.991
0.032,3.734,3.696,3.696,269.620,246.188,248.905
0.033,3.855,3.704,3.704,269.645,246.118,248.809
0.034,3.994,3.710,3.710,269.663,246.033,248.702
0.036,4.147,3.717,3.717,269.676,245.933,248.585
0.037,4.315,3.728,3.728,269.682,245.823,248.460
0.039,4.494,3.747,3.747,269.682,245.704,248.325
0.040,4.684,3.778,3.778,269.676,245.579,248.182
0.042,4.882,3.822,3.822,269.663,245.451,248.032
0.043,5.087,3.880,3.880,269.644,245.321,247.875
0.044,5.296,3.950,3.950,269.618,245.192,247.711
0.046,5.509,4.028,4.028,269.586,245.068,247.542
0.047,5.724,4.113,4.113,269.547,244.949,247.367
0.049,5.939,4.203,4.203,269.502,244.837,247.190
0.050,6.150,4.295,4.295,269.453,244.732,247.013
0.052,6.357,4.388,4.388,269.401,244.634,246.839
0.053,6.555,4.477,4.477,269.348,244.544,246.670
0.055,6.743,4.561,4.561,269.294,244.462,246.510
0.056,6.916,4.636,4.636,269.241,244.388,246.362
0.057,7.074,4.700,4.700,269.191,244.323,246.228
0.059,7.211,4.750,4.750,269.145,244.266,246.112
0.060,7.326,4.782,4.782,269.103,244.218,246.015
0.062,7.416,4.794,4.794,269.068,244.180,245.942
0.063,7.480,4.790,4.790,269.041,244.151,245.893
0.065,7.520,4.771,4.771,269.020,244.129,245.866
0.066,7.544,4.744,4.744,269.007,244.112,245.856
0.067,7.559,4.712,4.712,269.000,244.099,245.860
0.069,7.577,4.680,4.680,268.999,244.088,245.874
0.070,7.602,4.652,4.652,269.005,244.076,245.895
0.072,7.631,4.632,4.632,269.016,244.062,245.918
0.073,7.664,4.620,4.620,269.032,244.044,245.940
0.075,7.701,4.614,4.614,269.054,244.019,245.957
0.076,7.743,4.611,4.611,269.080,243.987,245.965
0.077,7.796,4.610,4.610,269.111,243.944,245.961
0.079,7.862,4.608,4.608,269.146,243.891,245.943
0.080,7.943,4.603,4.603,269.186,243.828,245.911
0.082,8.039,4.594,4.594,269.230,243.755,245.867
0.083,8.149,4.579,4.579,269.280,243.674,245.813
0.085,8.271,4.561,4.561,269.335,243.585,245.749
0.086,8.406,4.540,4.540,269.395,243.489,245.677
0.088,8.551,4.519,4.519,269.460,243.387,245.598
0.089,8.705,4.499,4.499,269.532,243.279,245.512
0.090,8.869,4.481,4.481,269.609,243.167,245.422
0.092,9.040,4.466,4.466,269.693,243.051,245.328
0.093,9.218,4.455,4.455,269.783,242.932,245.231
0.095,9.401,4.447,4.447,269.878,242.810,245.133
0.096,9.589,4.441,4.441,269.973,242.682,245.033
0.098,9.781,4.436,4.436,270.066,242.548,244.931
0.099,9.976,4.431,4.432,270.152,242.406,244.829
0.100,10.175,4.427,4.427,270.229,242.256,244.725
0.102,10.377,4.421,4.421,270.294,242.094,244.621
0.103,10.585,4.414,4.413,270.342,241.921,244.517
0.105,10.801,4.407,4.405,270.370,241.734,244.412
0.106,11.028,4.398,4.396,270.375,241.533,244.307
0.108,11.270,4.389,4.387,270.353,241.316,244.203
0.109,11.531,4.379,4.377,270.302,241.082,244.099
0.110,11.813,4.369,4.369,270.224,240.832,243.994
0.112,12.113,4.360,4.361,270.122,240.570,243.888
0.113,12.431,4.352,4.355,270.000,240.298,243.778
0.115,12.763,4.349,4.355,269.861,240.019,243.664
0.116,13.108,4.355,4.363,269.709,239.734,243.544
0.118,13.461,4.373,4.382,269.546,239.447,243.417
0.119,13.821,4.407,4.414,269.376,239.160,243.281
0.121,14.184,4.460,4.463,269.203,238.876,243.137
0.122,14.548,4.535,4.531,269.029,238.597,242.981
0.123,14.909,4.631,4.617,268.859,238.325,242.813
0.125,15.267,4.742,4.719,268.696,238.064,242.634
0.126,15.617,4.864,4.833,268.539,237.812,242.446
0.128,15.958,4.989,4.956,268.392,237.572,242.254
0.129,16.286,5.112,5.085,268.255,237.344,242.061
0.131,16.599,5.229,5.216,268.130,237.129,241.873
0.132,16.892,5.332,5.346,268.018,236.927,241.692
0.133,17.162,5.420,5.473,267.921,236.739,241.524
0.135,17.407,5.495,5.592,267.840,236.566,241.371
0.136,17.623,5.559,5.702,267.776,236.408,241.238
0.138,17.807,5.612,5.801,267.731,236.267,241.129
0.139,17.958,5.658,5.884,267.706,236.142,241.047
0.141,18.078,5.697,5.950,267.701,236.034,240.994
0.142,18.175,5.731,5.996,267.711,235.942,240.965
0.143,18.257,5.762,6.022,267.735,235.865,240.958
0.145,18.330,5.790,6.031,267.768,235.800,240.967
0.146,18.400,5.815,6.028,267.809,235.748,240.991
0.148,18.470,5.836,6.016,267.853,235.707,241.025
0.149,18.538,5.855,5.999,267.898,235.676,241.065
0.151,18.603,5.871,5.980,267.941,235.653,241.109
0.152,18.661,5.885,5.963,267.978,235.638,241.152
0.154,18.710,5.897,5.950,268.006,235.629,241.191
0.155,18.746,5.906,5.941,268.023,235.625,241.222
0.156,18.770,5.914,5.935,268.029,235.626,241.246
0.158,18.787,5.921,5.932,268.027,235.628,241.262
0.159,18.800,5.927,5.931,268.020,235.632,241.272
0.161,18.811,5.931,5.933,268.010,235.635,241.276
0.162,18.821,5.936,5.935,268.000,235.635,241.274
0.164,18.831,5.939,5.939,267.992,235.632,241.268
0.165,18.844,5.943,5.943,267.989,235.624,241.259
0.166,18.864,5.946,5.947,267.993,235.610,241.246
0.168,18.895,5.948,5.951,268.008,235.587,241.231
0.169,18.940,5.950,5.953,268.034,235.554,241.214
0.171,19.002,5.951,5.955,268.075,235.511,241.196
0.172,19.078,5.952,5.955,268.126,235.457,241.178
0.174,19.167,5.951,5.952,268.183,235.393,241.159
0.175,19.264,5.948,5.946,268.242,235.318,241.141
0.176,19.368,5.940,5.936,268.299,235.232,241.123
0.178,19.476,5.926,5.920,268.348,235.137,241.107
0.179,19.590,5.904,5.898,268.387,235.032,241.092
0.181,19.707,5.872,5.869,268.411,234.917,241.079
0.182,19.832,5.830,5.832,268.415,234.793,241.069
0.184,19.967,5.777,5.786,268.395,234.660,241.061
0.185,20.118,5.715,5.735,268.347,234.517,241.056
0.187,20.287,5.649,5.679,268.270,234.367,241.055
0.188,20.472,5.580,5.621,268.169,234.211,241.057
0.189,20.671,5.513,5.563,268.050,234.052,241.060
0.191,20.877,5.451,5.508,267.918,233.893,241.063
0.192,21.087,5.396,5.457,267.779,233.736,241.067
0.194,21.295,5.350,5.412,267.637,233.585,241.071
0.195,21.494,5.313,5.372,267.499,233.440,241.072
0.197,21.680,5.282,5.336,267.370,233.306,241.072
0.198,21.847,5.256,5.305,267.255,233.185,241.068
0.199,21.990,5.233,5.277,267.160,233.079,241.060
0.201,22.103,5.212,5.252,267.090,232.991,241.048
0.202,22.189,5.191,5.229,267.046,232.920,241.030
0.204,22.256,5.169,5.208,267.022,232.861,241.007
0.205,22.314,5.144,5.187,267.014,232.812,240.978
0.207,22.372,5.116,5.166,267.020,232.767,240.942
0.208,22.434,5.084,5.143,267.034,232.724,240.900
0.209,22.503,5.046,5.118,267.053,232.678,240.851
0.211,22.583,5.003,5.089,267.071,232.626,240.794
0.212,22.674,4.951,5.056,267.086,232.563,240.730
0.214,22.780,4.893,5.017,267.093,232.487,240.657
0.215,22.905,4.829,4.973,267.088,232.392,240.576
0.217,23.053,4.761,4.923,267.068,232.276,240.486
0.218,23.222,4.691,4.869,267.033,232.142,240.389
0.220,23.408,4.622,4.809,266.987,231.993,240.286
0.221,23.607,4.556,4.745,266.932,231.834,240.180
0.222,23.813,4.495,4.677,266.872,231.670,240.073
0.224,24.020,4.439,4.604,266.808,231.504,239.965
0.225,24.225,4.390,4.530,266.745,231.340,239.859
0.227,24.421,4.347,4.458,266.685,231.184,239.758
0.228,24.603,4.310,4.389,266.630,231.039,239.662
0.230,24.767,4.278,4.326,266.584,230.910,239.573
0.231,24.906,4.252,4.272,266.549,230.800,239.494
0.232,25.019,4.230,4.229,266.527,230.713,239.426
0.234,25.108,4.214,4.199,266.517,230.647,239.367
0.235,25.178,4.201,4.181,266.516,230.598,239.318
0.237,25.231,4.192,4.172,266.523,230.564,239.277
0.238,25.273,4.187,4.170,266.537,230.543,239.244
0.240,25.306,4.184,4.172,266.554,230.532,239.217
0.241,25.335,4.182,4.177,266.573,230.528,239.196
0.242,25.360,4.183,4.183,266.592,230.529,239.180
0.244,25.381,4.184,4.187,266.610,230.532,239.169
0.245,25.398,4.185,4.188,266.624,230.534,239.160
0.247,25.409,4.185,4.188,266.633,230.533,239.154
0.248,25.417,4.184,4.186,266.636,230.527,239.149
0.250,25.433,4.181,4.181,266.632,230.515,239.141
0.251,25.459,4.174,4.174,266.622,230.494,239.128
0.253,25.498,4.164,4.164,266.607,230.464,239.107
0.254,25.554,4.150,4.152,266.587,230.424,239.075
0.255,25.628,4.132,4.138,266.562,230.373,239.028
0.257,25.723,4.113,4.123,266.532,230.308,238.964
0.258,25.844,4.092,4.108,266.497,230.229,238.881
0.260,25.991,4.071,4.093,266.459,230.134,238.774
0.261,26.170,4.052,4.078,266.416,230.022,238.641
0.263,26.382,4.035,4.066,266.370,229.893,238.479
0.264,26.623,4.022,4.055,266.322,229.748,238.293
0.265,26.886,4.013,4.048,266.272,229.592,238.087
0.267,27.164,4.008,4.045,266.221,229.429,237.868
0.268,27.447,4.008,4.046,266.171,229.264,237.643
0.270,27.730,4.014,4.052,266.123,229.100,237.418
0.271,28.003,4.025,4.064,266.078,228.943,237.199
0.273,28.260,4.042,4.083,266.036,228.796,236.993
0.274,28.492,4.066,4.109,266.000,228.664,236.805
0.275,28.692,4.094,4.141,265.970,228.551,236.643
0.277,28.852,4.124,4.174,265.947,228.462,236.512
0.278,28.966,4.154,4.208,265.932,228.399,236.418
0.280,29.040,4.182,4.239,265.924,228.360,236.356
0.281,29.080,4.205,4.266,265.920,228.340,236.321
0.283,29.094,4.220,4.284,265.920,228.335,236.309
0.284,29.101,4.227,4.293,265.920,228.341,236.313
0.286,29.121,4.226,4.294,265.920,228.354,236.328
0.287,29.147,4.220,4.288,265.916,228.370,236.349
0.288,29.174,4.211,4.278,265.909,228.383,236.371
0.290,29.197,4.201,4.266,265.894,228.391,236.388
0.291,29.221,4.192,4.254,265.872,228.388,236.394
0.293,29.259,4.188,4.245,265.839,228.371,236.385
0.294,29.320,4.189,4.240,265.796,228.337,236.358
0.296,29.404,4.196,4.239,265.743,228.288,236.314
0.297,29.508,4.207,4.243,265.683,228.227,236.256
0.298,29.628,4.222,4.250,265.617,228.156,236.187
0.300,29.760,4.239,4.260,265.546,228.076,236.108
0.301,29.901,4.258,4.271,265.474,227.991,236.022
0.303,30.047,4.276,4.284,265.400,227.903,235.932
0.304,30.195,4.293,4.297,265.328,227.813,235.840
0.306,30.340,4.310,4.311,265.258,227.725,235.748
0.307,30.479,4.325,4.325,265.193,227.640,235.659
0.308,30.609,4.341,4.340,265.134,227.561,235.575
0.310,30.728,4.356,4.356,265.081,227.488,235.497
0.311,30.836,4.372,4.372,265.035,227.421,235.425
0.313,30.934,4.389,4.389,264.994,227.361,235.359
0.314,31.023,4.406,4.406,264.959,227.306,235.299
0.316,31.103,4.425,4.424,264.927,227.256,235.244
0.317,31.176,4.443,4.442,264.900,227.212,235.195
0.319,31.240,4.461,4.460,264.876,227.172,235.150
0.320,31.297,4.477,4.476,264.855,227.136,235.111
0.321,31.348,4.492,4.491,264.836,227.104,235.076
0.323,31.392,4.504,4.504,264.818,227.076,235.046
0.324,31.432,4.513,4.515,264.802,227.052,235.020
0.326,31.466,4.518,4.523,264.787,227.030,234.999
0.327,31.494,4.522,4.530,264.774,227.012,234.981
0.329,31.518,4.523,4.534,264.762,226.996,234.967
0.330,31.538,4.524,4.537,264.753,226.984,234.956
0.331,31.552,4.524,4.538,264.746,226.974,234.949
0.333,31.562,4.524,4.538,264.741,226.966,234.944
0.334,31.568,4.525,4.537,264.739,226.961,234.942
0.336,31.571,4.527,4.535,264.741,226.958,234.942
0.337,31.577,4.529,4.534,264.746,226.957,234.944
0.339,31.587,4.532,4.533,264.755,226.958,234.948
0.340,31.601,4.535,4.533,264.767,226.960,234.954
0.341,31.616,4.538,4.535,264.782,226.962,234.959
0.343,31.630,4.540,4.539,264.795,226.963,234.962
0.344,31.642,4.543,4.546,264.807,226.961,234.960
0.346,31.654,4.545,4.556,264.814,226.953,234.954
0.347,31.675,4.548,4.569,264.815,226.939,234.939
0.349,31.708,4.552,4.584,264.807,226.917,234.915
0.350,31.759,4.559,4.601,264.789,226.884,234.880
0.352,31.831,4.570,4.621,264.758,226.840,234.832
0.353,31.928,4.584,4.642,264.712,226.783,234.770
0.354,32.051,4.604,4.665,264.650,226.711,234.691
0.356,32.202,4.629,4.690,264.571,226.624,234.595
0.357,32.375,4.657,4.716,264.479,226.526,234.487
0.359,32.564,4.687,4.744,264.377,226.419,234.370
0.360,32.762,4.718,4.775,264.269,226.307,234.247
0.362,32.965,4.749,4.808,264.157,226.193,234.122
0.363,33.167,4.779,4.843,264.046,226.079,233.998
0.364,33.360,4.806,4.882,263.938,225.970,233.880
0.366,33.541,4.830,4.922,263.837,225.868,233.770
0.367,33.702,4.851,4.961,263.748,225.777,233.672
0.369,33.838,4.870,4.999,263.672,225.699,233.591
0.370,33.944,4.887,5.033,263.613,225.637,233.528
0.372,34.019,4.902,5.061,263.571,225.593,233.484
0.373,34.068,4.916,5.082,263.544,225.562,233.457
0.374,34.094,4.929,5.093,263.531,225.545,233.443
0.376,34.102,4.941,5.094,263.528,225.538,233.441
0.377,34.111,4.952,5.089,263.534,225.540,233.449
0.379,34.132,4.961,5.078,263.547,225.548,233.462
0.380,34.160,4.970,5.066,263.564,225.561,233.480
0.382,34.191,4.977,5.053,263.583,225.577,233.499
0.383,34.223,4.983,5.043,263.603,225.593,233.517
0.385,34.251,4.987,5.037,263.621,225.609,233.532
0.386,34.272,4.990,5.037,263.636,225.621,233.541
0.387,34.286,4.992,5.040,263.646,225.630,233.545
0.389,34.295,4.992,5.044,263.653,225.636,233.545
0.390,34.301,4.991,5.049,263.657,225.638,233.541
0.392,34.307,4.989,5.053,263.657,225.636,233.536
0.393,34.316,4.986,5.054,263.654,225.630,233.529
0.395,34.329,4.982,5.049,263.649,225.621,233.522
0.396,34.345,4.978,5.041,263.640,225.608,233.515
0.397,34.366,4.975,5.029,263.630,225.591,233.511
0.399,34.391,4.972,5.016,263.617,225.570,233.509
0.400,34.420,4.971,5.003,263.603,225.545,233.511
0.402,34.454,4.973,4.992,263.587,225.515,233.517
0.403,34.492,4.979,4.986,263.570,225.482,233.523
0.405,34.534,4.989,4.985,263.553,225.444,233.528
0.406,34.579,5.002,4.990,263.537,225.402,233.527
0.407,34.628,5.016,4.998,263.523,225.355,233.519
0.409,34.684,5.028,5.007,263.511,225.304,233.499
0.410,34.750,5.035,5.014,263.503,225.248,233.465
0.412,34.830,5.034,5.018,263.498,225.188,233.413
0.413,34.926,5.023,5.015,263.499,225.123,233.342
0.415,35.044,4.998,5.003,263.505,225.053,233.247
0.416,35.187,4.959,4.981,263.518,224.978,233.126
0.418,35.356,4.910,4.952,263.538,224.899,232.979
0.419,35.547,4.854,4.917,263.564,224.815,232.809
0.420,35.757,4.796,4.880,263.598,224.726,232.621
0.422,35.984,4.739,4.841,263.637,224.634,232.417
0.423,36.224,4.686,4.805,263.683,224.538,232.203
0.425,36.473,4.642,4.772,263.735,224.438,231.981
0.426,36.728,4.609,4.744,263.794,224.335,231.755
0.428,36.986,4.584,4.720,263.858,224.229,231.529
0.429,37.243,4.567,4.698,263.928,224.119,231.307
0.430,37.497,4.554,4.678,264.004,224.008,231.092
0.432,37.744,4.545,4.657,264.085,223.893,230.888
0.433,37.986,4.537,4.634,264.173,223.776,230.695
0.435,38.225,4.529,4.609,264.268,223.657,230.511
0.436,38.463,4.519,4.580,264.372,223.535,230.335
0.438,38.703,4.508,4.551,264.484,223.410,230.164
0.439,38.946,4.498,4.523,264.608,223.283,229.998
0.440,39.195,4.488,4.498,264.742,223.152,229.834
0.442,39.452,4.479,4.480,264.889,223.019,229.671
0.443,39.719,4.474,4.471,265.050,222.883,229.506
0.445,39.998,4.471,4.472,265.225,222.743,229.340
0.446,40.291,4.472,4.486,265.416,222.601,229.169
0.448,40.599,4.479,4.511,265.622,222.455,228.993
0.449,40.918,4.493,4.546,265.840,222.306,228.814
0.451,41.242,4.515,4.588,266.064,222.155,228.634
0.452,41.568,4.546,4.638,266.289,222.002,228.457
0.453,41.889,4.588,4.693,266.511,221.848,228.283
0.455,42.200,4.643,4.752,266.724,221.693,228.117
0.456,42.498,4.709,4.814,266.924,221.538,227.960
0.458,42.777,4.784,4.876,267.105,221.382,227.815
0.459,43.033,4.864,4.937,267.262,221.227,227.685
0.461,43.263,4.943,4.996,267.390,221.073,227.572
0.462,43.465,5.018,5.050,267.484,220.921,227.479
0.463,43.643,5.085,5.098,267.544,220.770,227.407
0.465,43.803,5.139,5.138,267.572,220.622,227.353
0.466,43.953,5.179,5.168,267.574,220.476,227.316
0.468,44.099,5.204,5.190,267.555,220.333,227.294
0.469,44.242,5.218,5.204,267.519,220.194,227.285
0.471,44.386,5.222,5.211,267.472,220.059,227.286
0.472,44.528,5.219,5.212,267.417,219.929,227.297
0.473,44.667,5.210,5.208,267.360,219.803,227.314
0.475,44.801,5.198,5.199,267.306,219.682,227.336
0.476,44.928,5.184,5.186,267.259,219.567,227.360
0.478,45.045,5.169,5.170,267.224,219.458,227.386
0.479,45.153,5.152,5.151,267.202,219.355,227.411
0.481,45.253,5.134,5.132,267.192,219.259,227.436
0.482,45.346,5.115,5.112,267.191,219.169,227.460
0.484,45.433,5.096,5.093,267.197,219.086,227.483
0.485,45.514,5.075,5.075,267.210,219.009,227.505
0.486,45.588,5.054,5.059,267.227,218.940,227.526
0.488,45.656,5.033,5.045,267.247,218.877,227.545
0.489,45.718,5.013,5.033,267.267,218.822,227.563
0.491,45.772,4.994,5.023,267.287,218.774,227.578
0.492,45.818,4.977,5.013,267.304,218.733,227.592
0.494,45.855,4.962,5.005,267.316,218.700,227.603
0.495,45.884,4.950,4.998,267.324,218.674,227.611
0.496,45.906,4.942,4.992,267.329,218.653,227.618
0.498,45.922,4.937,4.986,267.332,218.638,227.621
0.499,45.934,4.934,4.983,267.332,218.626,227.623
0.501,45.943,4.934,4.981,267.332,218.617,227.622
0.502,45.951,4.935,4.982,267.331,218.610,227.618
0.504,45.959,4.938,4.986,267.331,218.604,227.612
0.505,45.969,4.943,4.993,267.331,218.599,227.604
0.506,45.982,4.948,5.003,267.334,218.592,227.593
0.508,45.999,4.953,5.016,267.340,218.584,227.580
0.509,46.020,4.958,5.031,267.349,218.573,227.565
0.511,46.045,4.962,5.047,267.361,218.558,227.548
0.512,46.074,4.966,5.063,267.375,218.540,227.530
0.514,46.107,4.968,5.077,267.390,218.517,227.511
0.515,46.144,4.969,5.090,267.406,218.490,227.493
0.516,46.184,4.967,5.100,267.422,218.456,227.476
0.518,46.229,4.963,5.107,267.437,218.417,227.461
0.519,46.280,4.958,5.111,267.452,218.370,227.448
0.521,46.336,4.951,5.112,267.464,218.317,227.439
0.522,46.398,4.943,5.110,267.475,218.255,227.433
0.524,46.469,4.935,5.105,267.482,218.185,227.431
0.525,46.547,4.926,5.097,267.486,218.107,227.434
0.527,46.632,4.917,5.085,267.488,218.022,227.441
0.528,46.721,4.908,5.071,267.488,217.933,227.451
0.529,46.814,4.900,5.056,267.486,217.842,227.464
0.531,46.907,4.891,5.040,267.484,217.750,227.478
0.532,46.999,4.884,5.024,267.481,217.659,227.493
0.534,47.088,4.877,5.010,267.479,217.572,227.508
0.535,47.172,4.871,4.998,267.479,217.489,227.523
0.537,47.249,4.866,4.989,267.480,217.413,227.536
0.538,47.317,4.861,4.983,267.483,217.346,227.547
0.539,47.375,4.858,4.979,267.489,217.289,227.556
0.541,47.425,4.855,4.977,267.499,217.241,227.562
0.542,47.469,4.852,4.977,267.512,217.198,227.565
0.544,47.513,4.849,4.979,267.529,217.157,227.564
0.545,47.559,4.845,4.981,267.549,217.116,227.561
0.547,47.611,4.841,4.984,267.573,217.070,227.555
0.548,47.672,4.837,4.987,267.601,217.017,227.545
0.549,47.745,4.834,4.991,267.634,216.953,227.533
0.551,47.832,4.831,4.996,267.670,216.875,227.518
0.552,47.937,4.830,5.001,267.711,216.780,227.499
0.554,48.064,4.831,5.008,267.756,216.665,227.478
0.555,48.213,4.834,5.015,267.806,216.526,227.453
0.557,48.382,4.840,5.023,267.860,216.368,227.426
0.558,48.566,4.849,5.032,267.915,216.195,227.397
0.560,48.760,4.860,5.043,267.971,216.012,227.366
0.561,48.960,4.871,5.055,268.026,215.822,227.334
0.562,49.161,4.881,5.068,268.079,215.631,227.302
0.564,49.359,4.890,5.083,268.129,215.442,227.270
0.565,49.548,4.897,5.100,268.174,215.261,227.239
0.567,49.724,4.900,5.118,268.212,215.092,227.209
0.568,49.883,4.899,5.136,268.244,214.939,227.180
0.570,50.019,4.896,5.153,268.266,214.807,227.154
0.571,50.133,4.889,5.165,268.279,214.697,227.130
0.572,50.230,4.880,5.172,268.282,214.603,227.106
0.574,50.317,4.869,5.170,268.276,214.519,227.081
0.575,50.403,4.855,5.158,268.262,214.440,227.052
0.577,50.494,4.840,5.134,268.239,214.358,227.018
0.578,50.598,4.826,5.102,268.208,214.268,226.976
0.580,50.721,4.814,5.066,268.170,214.163,226.926
0.581,50.868,4.807,5.033,268.125,214.037,226.864
0.582,51.046,4.809,5.010,268.073,213.885,226.790
0.584,51.260,4.820,5.001,268.014,213.699,226.700
