"T","Distance","Radius","FreeRadius","X","Y","Z"
0.000,0.000,2.406,2.406,-23.849,115.889,160.172
0.001,0.353,2.549,2.549,-23.691,116.166,160.324
0.003,0.702,2.691,2.691,-23.535,116.440,160.474
0.004,1.043,2.830,2.830,-23.382,116.707,160.620
0.006,1.372,2.966,2.966,-23.234,116.965,160.761
0.007,1.684,3.097,3.097,-23.094,117.209,160.895
0.009,1.976,3.221,3.221,-22.962,117.437,161.020
0.010,2.243,3.338,3.338,-22.840,117.646,161.134
0.012,2.481,3.446,3.446,-22.731,117.832,161.236
0.013,2.687,3.544,3.544,-22.636,117.992,161.323
0.014,2.856,3.630,3.630,-22.556,118.123,161.394
0.016,2.984,3.704,3.704,-22.493,118.221,161.447
0.017,3.073,3.765,3.765,-22.448,118.289,161.483
0.019,3.130,3.811,3.811,-22.416,118.331,161.504
0.020,3.158,3.841,3.841,-22.397,118.351,161.513
0.022,3.168,3.854,3.854,-22.389,118.354,161.510
0.023,3.182,3.855,3.855,-22.388,118.344,161.500
0.024,3.206,3.846,3.846,-22.393,118.327,161.484
0.026,3.236,3.834,3.834,-22.403,118.307,161.464
0.027,3.266,3.821,3.821,-22.413,118.289,161.442
0.029,3.292,3.812,3.812,-22.423,118.276,161.421
0.030,3.312,3.811,3.811,-22.431,118.275,161.403
0.032,3.330,3.822,3.822,-22.434,118.287,161.390
0.033,3.356,3.845,3.845,-22.432,118.312,161.382
0.035,3.393,3.876,3.876,-22.426,118.348,161.380
0.036,3.442,3.913,3.913,-22.413,118.396,161.384
0.037,3.503,3.955,3.955,-22.395,118.453,161.395
0.039,3.575,3.998,3.998,-22.370,118.518,161.412
0.040,3.659,4.042,4.042,-22.339,118.591,161.438
0.042,3.753,4.084,4.084,-22.301,118.670,161.471
0.043,3.858,4.124,4.124,-22.255,118.755,161.513
0.045,3.973,4.165,4.165,-22.201,118.843,161.564
0.046,4.099,4.206,4.206,-22.140,118.935,161.624
0.047,4.233,4.249,4.249,-22.071,119.028,161.692
0.049,4.373,4.296,4.296,-21.999,119.122,161.766
0.050,4.516,4.347,4.347,-21.923,119.215,161.844
0.052,4.659,4.403,4.403,-21.847,119.306,161.924
0.053,4.800,4.463,4.463,-21.771,119.394,162.004
0.055,4.935,4.524,4.524,-21.699,119.477,162.083
0.056,5.062,4.585,4.585,-21.632,119.553,162.159
0.058,5.177,4.643,4.643,-21.572,119.623,162.229
0.059,5.279,4.695,4.695,-21.520,119.683,162.291
0.060,5.363,4.740,4.740,-21.480,119.734,162.345
0.062,5.430,4.776,4.776,-21.449,119.775,162.390
0.063,5.484,4.803,4.803,-21.427,119.807,162.426
0.065,5.525,4.824,4.824,-21.411,119.832,162.455
0.066,5.558,4.839,4.839,-21.399,119.852,162.478
0.068,5.584,4.850,4.850,-21.389,119.867,162.496
0.069,5.606,4.858,4.858,-21.378,119.880,162.511
0.071,5.628,4.866,4.866,-21.364,119.891,162.524
0.072,5.653,4.875,4.875,-21.345,119.902,162.535
0.073,5.684,4.885,4.885,-21.319,119.914,162.546
0.075,5.725,4.895,4.895,-21.283,119.930,162.559
0.076,5.777,4.905,4.905,-21.237,119.949,162.574
0.078,5.839,4.916,4.916,-21.182,119.971,162.591
0.079,5.908,4.926,4.926,-21.120,119.995,162.609
0.081,5.982,4.936,4.936,-21.053,120.020,162.629
0.082,6.059,4.945,4.945,-20.983,120.045,162.651
0.083,6.136,4.954,4.954,-20.914,120.068,162.674
0.085,6.211,4.961,4.961,-20.846,120.089,162.698
0.086,6.282,4.966,4.966,-20.782,120.107,162.723
0.088,6.347,4.971,4.971,-20.724,120.121,162.748
0.089,6.403,4.973,4.973,-20.674,120.129,162.774
0.091,6.450,4.974,4.974,-20.635,120.131,162.800
0.092,6.491,4.973,4.973,-20.605,120.128,162.827
0.094,6.528,4.971,4.971,-20.583,120.120,162.856
0.095,6.564,4.967,4.967,-20.566,120.110,162.886
0.096,6.602,4.962,4.962,-20.552,120.099,162.920
0.098,6.643,4.957,4.957,-20.539,120.088,162.957
0.099,6.688,4.952,4.952,-20.526,120.080,162.999
0.101,6.737,4.946,4.946,-20.509,120.075,163.045
0.102,6.794,4.942,4.942,-20.488,120.075,163.098
0.104,6.859,4.937,4.937,-20.460,120.081,163.157
0.105,6.937,4.933,4.933,-20.423,120.096,163.223
0.106,7.026,4.928,4.928,-20.376,120.119,163.296
0.108,7.126,4.923,4.923,-20.322,120.150,163.374
0.109,7.235,4.917,4.917,-20.261,120.186,163.456
0.111,7.349,4.910,4.910,-20.196,120.228,163.541
0.112,7.467,4.901,4.901,-20.129,120.273,163.626
0.114,7.585,4.890,4.890,-20.060,120.321,163.710
0.115,7.702,4.879,4.879,-19.993,120.370,163.791
0.117,7.814,4.868,4.868,-19.928,120.420,163.868
0.118,7.919,4.858,4.858,-19.868,120.469,163.940
0.119,8.015,4.848,4.848,-19.814,120.515,164.003
0.121,8.100,4.841,4.841,-19.767,120.559,164.058
0.122,8.174,4.835,4.835,-19.727,120.600,164.105
0.124,8.240,4.831,4.831,-19.692,120.639,164.146
0.125,8.300,4.829,4.829,-19.661,120.677,164.180
0.127,8.355,4.826,4.826,-19.633,120.714,164.209
0.128,8.407,4.823,4.823,-19.606,120.751,164.235
0.129,8.459,4.819,4.819,-19.580,120.789,164.258
0.131,8.511,4.813,4.813,-19.552,120.828,164.279
0.132,8.566,4.804,4.804,-19.521,120.869,164.300
0.134,8.625,4.793,4.793,-19.487,120.912,164.321
0.135,8.690,4.781,4.781,-19.448,120.958,164.344
0.137,8.761,4.767,4.767,-19.403,121.008,164.369
0.138,8.841,4.755,4.755,-19.353,121.062,164.398
0.140,8.929,4.743,4.743,-19.298,121.121,164.433
0.141,9.026,4.733,4.733,-19.237,121.185,164.474
0.142,9.134,4.727,4.727,-19.170,121.255,164.523
0.144,9.254,4.724,4.724,-19.098,121.331,164.582
0.145,9.387,4.726,4.726,-19.021,121.413,164.651
0.147,9.533,4.734,4.734,-18.938,121.503,164.732
0.148,9.694,4.749,4.749,-18.850,121.600,164.826
0.150,9.872,4.771,4.771,-18.757,121.706,164.934
0.151,10.066,4.802,4.802,-18.658,121.819,165.057
0.153,10.275,4.842,4.842,-18.554,121.939,165.192
0.154,10.496,4.890,4.891,-18.443,122.064,165.337
0.155,10.727,4.946,4.947,-18.326,122.192,165.489
0.157,10.964,5.008,5.008,-18.203,122.322,165.645
0.158,11.207,5.073,5.074,-18.072,122.453,165.803
0.160,11.453,5.142,5.142,-17.935,122.581,165.961
0.161,11.700,5.212,5.212,-17.789,122.707,166.116
0.163,11.945,5.281,5.281,-17.636,122.828,166.265
0.164,12.189,5.350,5.348,-17.475,122.944,166.405
0.165,12.428,5.417,5.415,-17.306,123.051,166.536
0.167,12.662,5.483,5.480,-17.131,123.152,166.655
0.168,12.891,5.546,5.543,-16.953,123.246,166.764
0.170,13.112,5.608,5.605,-16.775,123.333,166.862
0.171,13.323,5.666,5.665,-16.601,123.415,166.950
0.173,13.524,5.721,5.723,-16.433,123.493,167.027
0.174,13.711,5.773,5.779,-16.275,123.566,167.095
0.176,13.882,5.822,5.831,-16.129,123.636,167.153
0.177,14.036,5.866,5.880,-15.999,123.703,167.201
0.178,14.171,5.906,5.924,-15.888,123.767,167.239
0.180,14.285,5.942,5.963,-15.797,123.830,167.268
0.181,14.379,5.973,5.996,-15.729,123.891,167.289
0.183,14.459,6.000,6.022,-15.678,123.952,167.302
0.184,14.528,6.022,6.042,-15.642,124.011,167.308
0.186,14.591,6.040,6.057,-15.618,124.069,167.309
0.187,14.651,6.055,6.068,-15.603,124.126,167.306
0.188,14.708,6.068,6.077,-15.592,124.182,167.300
0.190,14.765,6.079,6.084,-15.584,124.238,167.292
0.191,14.821,6.089,6.090,-15.574,124.293,167.282
0.193,14.878,6.099,6.097,-15.560,124.347,167.273
0.194,14.937,6.108,6.106,-15.538,124.401,167.265
0.196,14.999,6.118,6.115,-15.506,124.454,167.259
0.197,15.065,6.128,6.125,-15.466,124.506,167.255
0.199,15.134,6.137,6.135,-15.419,124.557,167.252
0.200,15.204,6.147,6.145,-15.369,124.606,167.251
0.201,15.275,6.156,6.156,-15.315,124.651,167.250
0.203,15.343,6.165,6.166,-15.262,124.694,167.250
0.204,15.408,6.174,6.175,-15.210,124.733,167.250
0.206,15.467,6.183,6.184,-15.161,124.767,167.250
0.207,15.519,6.190,6.192,-15.118,124.796,167.250
0.209,15.562,6.196,6.198,-15.083,124.820,167.248
0.210,15.594,6.201,6.202,-15.056,124.838,167.246
0.212,15.616,6.204,6.204,-15.039,124.851,167.243
0.213,15.629,6.204,6.203,-15.029,124.859,167.240
0.214,15.637,6.202,6.201,-15.025,124.864,167.236
0.216,15.641,6.199,6.198,-15.027,124.867,167.233
0.217,15.648,6.197,6.195,-15.032,124.869,167.230
0.219,15.656,6.196,6.193,-15.040,124.871,167.228
0.220,15.666,6.197,6.195,-15.050,124.874,167.227
0.222,15.677,6.201,6.200,-15.059,124.879,167.227
0.223,15.689,6.209,6.210,-15.068,124.887,167.230
0.224,15.704,6.221,6.225,-15.074,124.900,167.235
0.226,15.723,6.235,6.242,-15.077,124.917,167.242
0.227,15.745,6.250,6.260,-15.078,124.938,167.249
0.229,15.770,6.263,6.276,-15.077,124.962,167.257
0.230,15.798,6.275,6.290,-15.073,124.988,167.264
0.232,15.826,6.282,6.298,-15.068,125.015,167.268
0.233,15.854,6.284,6.299,-15.062,125.043,167.268
0.235,15.883,6.280,6.294,-15.055,125.071,167.265
0.236,15.912,6.273,6.283,-15.048,125.097,167.256
0.237,15.943,6.263,6.271,-15.041,125.122,167.240
0.239,15.976,6.252,6.258,-15.034,125.144,167.216
0.240,16.013,6.241,6.246,-15.027,125.163,167.185
0.242,16.055,6.233,6.239,-15.019,125.181,167.148
0.243,16.100,6.228,6.238,-15.009,125.200,167.108
0.245,16.146,6.226,6.242,-14.996,125.221,167.070
0.246,16.193,6.223,6.247,-14.976,125.247,167.035
0.247,16.243,6.218,6.252,-14.951,125.279,167.007
0.249,16.300,6.206,6.252,-14.916,125.321,166.989
0.250,16.369,6.186,6.244,-14.872,125.374,166.985
0.252,16.455,6.153,6.224,-14.817,125.439,166.997
0.253,16.565,6.106,6.190,-14.749,125.519,167.029
0.255,16.703,6.044,6.141,-14.667,125.617,167.083
0.256,16.868,5.971,6.080,-14.573,125.729,167.158
0.258,17.055,5.891,6.010,-14.468,125.854,167.250
0.259,17.257,5.807,5.933,-14.357,125.986,167.355
0.260,17.470,5.722,5.853,-14.242,126.124,167.469
0.262,17.686,5.641,5.773,-14.125,126.262,167.587
0.263,17.899,5.566,5.695,-14.011,126.398,167.706
0.265,18.104,5.500,5.622,-13.901,126.527,167.821
0.266,18.295,5.442,5.554,-13.799,126.647,167.928
0.268,18.464,5.392,5.492,-13.708,126.753,168.024
0.269,18.607,5.350,5.437,-13.631,126.843,168.104
0.271,18.720,5.316,5.390,-13.568,126.914,168.165
0.272,18.804,5.289,5.351,-13.521,126.966,168.210
0.273,18.861,5.270,5.322,-13.487,127.003,168.239
0.275,18.895,5.257,5.302,-13.466,127.024,168.254
0.276,18.907,5.251,5.292,-13.456,127.031,168.257
0.278,18.917,5.252,5.292,-13.458,127.026,168.248
0.279,18.944,5.260,5.301,-13.469,127.010,168.230
0.281,18.987,5.274,5.320,-13.490,126.983,168.204
0.282,19.042,5.295,5.348,-13.518,126.948,168.171
0.283,19.109,5.322,5.385,-13.554,126.906,168.133
0.285,19.185,5.354,5.429,-13.596,126.858,168.092
0.286,19.264,5.387,5.475,-13.640,126.808,168.050
0.288,19.339,5.417,5.518,-13.682,126.761,168.011
0.289,19.403,5.440,5.552,-13.720,126.720,167.978
0.291,19.450,5.453,5.573,-13.747,126.689,167.954
0.292,19.474,5.452,5.575,-13.761,126.674,167.943
0.294,19.481,5.433,5.555,-13.758,126.679,167.948
0.295,19.525,5.395,5.509,-13.733,126.707,167.971
0.296,19.613,5.342,5.444,-13.683,126.763,168.017
0.298,19.752,5.277,5.363,-13.603,126.851,168.089
0.299,19.948,5.201,5.271,-13.490,126.975,168.189
0.301,20.197,5.120,5.172,-13.346,127.133,168.316
0.302,20.488,5.035,5.071,-13.176,127.318,168.464
0.304,20.810,4.950,4.972,-12.987,127.521,168.628
0.305,21.150,4.867,4.879,-12.787,127.734,168.801
0.306,21.497,4.787,4.794,-12.581,127.950,168.977
0.308,21.838,4.712,4.718,-12.377,128.161,169.151
0.309,22.162,4.642,4.653,-12.180,128.359,169.316
0.311,22.457,4.580,4.601,-11.998,128.536,169.467
0.312,22.711,4.525,4.564,-11.837,128.683,169.597
0.314,22.913,4.479,4.543,-11.704,128.794,169.700
0.315,23.058,4.443,4.538,-11.603,128.865,169.775
0.317,23.155,4.414,4.544,-11.529,128.903,169.826
0.318,23.218,4.392,4.555,-11.478,128.916,169.860
0.319,23.259,4.375,4.568,-11.444,128.915,169.884
0.321,23.289,4.362,4.578,-11.424,128.907,169.905
0.322,23.316,4.350,4.578,-11.412,128.901,169.929
0.324,23.352,4.339,4.565,-11.404,128.907,169.962
0.325,23.410,4.327,4.537,-11.393,128.934,170.013
0.327,23.504,4.317,4.499,-11.377,128.990,170.087
0.328,23.647,4.308,4.454,-11.349,129.084,170.191
0.329,23.849,4.301,4.407,-11.306,129.223,170.332
0.331,24.106,4.297,4.364,-11.248,129.404,170.504
0.332,24.406,4.296,4.327,-11.178,129.618,170.702
0.334,24.736,4.301,4.303,-11.097,129.855,170.917
0.335,25.085,4.310,4.292,-11.010,130.106,171.143
0.337,25.440,4.323,4.294,-10.917,130.362,171.372
0.338,25.791,4.338,4.305,-10.823,130.614,171.596
0.340,26.124,4.355,4.324,-10.730,130.852,171.809
0.341,26.428,4.372,4.350,-10.639,131.068,172.003
0.342,26.690,4.388,4.379,-10.554,131.253,172.170
0.344,26.901,4.402,4.409,-10.478,131.396,172.304
0.345,27.058,4.414,4.440,-10.410,131.498,172.402
0.347,27.171,4.424,4.470,-10.349,131.565,172.470
0.348,27.255,4.433,4.500,-10.292,131.607,172.513
0.350,27.320,4.443,4.527,-10.236,131.633,172.537
0.351,27.380,4.455,4.551,-10.180,131.651,172.547
0.353,27.442,4.469,4.573,-10.121,131.669,172.549
0.354,27.513,4.486,4.591,-10.055,131.696,172.549
0.355,27.599,4.509,4.605,-9.982,131.742,172.551
0.357,27.710,4.537,4.620,-9.898,131.814,172.561
0.358,27.857,4.571,4.637,-9.802,131.921,172.586
0.360,28.046,4.615,4.661,-9.691,132.069,172.628
0.361,28.274,4.667,4.694,-9.569,132.252,172.686
0.363,28.529,4.730,4.740,-9.439,132.461,172.755
0.364,28.804,4.805,4.802,-9.305,132.687,172.834
0.365,29.088,4.891,4.880,-9.170,132.923,172.918
0.367,29.373,4.983,4.969,-9.039,133.160,173.004
0.368,29.647,5.077,5.063,-8.916,133.390,173.089
0.370,29.902,5.169,5.157,-8.802,133.604,173.169
0.371,30.127,5.253,5.245,-8.703,133.793,173.240
0.373,30.313,5.325,5.322,-8.622,133.950,173.300
0.374,30.452,5.380,5.381,-8.563,134.066,173.346
0.376,30.543,5.416,5.419,-8.524,134.143,173.376
0.377,30.594,5.436,5.441,-8.503,134.185,173.394
0.378,30.612,5.442,5.448,-8.497,134.200,173.402
0.380,30.620,5.439,5.445,-8.501,134.194,173.400
0.381,30.646,5.430,5.434,-8.514,134.172,173.393
0.383,30.684,5.417,5.419,-8.532,134.141,173.380
0.384,30.726,5.405,5.404,-8.551,134.107,173.366
0.386,30.765,5.395,5.391,-8.570,134.076,173.350
0.387,30.794,5.387,5.380,-8.583,134.054,173.337
0.388,30.808,5.381,5.372,-8.589,134.047,173.327
0.390,30.821,5.376,5.367,-8.586,134.058,173.321
0.391,30.849,5.373,5.365,-8.575,134.084,173.320
0.393,30.892,5.371,5.366,-8.558,134.123,173.320
0.394,30.944,5.369,5.371,-8.536,134.170,173.323
0.396,31.003,5.367,5.379,-8.512,134.224,173.326
0.397,31.065,5.366,5.389,-8.486,134.280,173.328
0.399,31.126,5.364,5.400,-8.461,134.336,173.329
0.400,31.183,5.363,5.410,-8.437,134.388,173.326
0.401,31.232,5.362,5.417,-8.418,134.433,173.320
0.403,31.272,5.361,5.421,-8.404,134.468,173.310
0.404,31.301,5.360,5.420,-8.396,134.491,173.293
0.406,31.325,5.358,5.413,-8.393,134.503,173.273
0.407,31.349,5.357,5.402,-8.393,134.508,173.249
0.409,31.372,5.355,5.387,-8.394,134.509,173.226
0.410,31.395,5.351,5.372,-8.392,134.509,173.204
0.412,31.415,5.347,5.357,-8.386,134.511,173.185
0.413,31.435,5.341,5.343,-8.373,134.519,173.171
0.414,31.463,5.334,5.334,-8.351,134.535,173.164
0.416,31.507,5.324,5.328,-8.318,134.563,173.166
0.417,31.571,5.313,5.326,-8.271,134.606,173.179
0.419,31.663,5.301,5.326,-8.208,134.667,173.204
0.420,31.781,5.288,5.327,-8.129,134.747,173.242
0.422,31.925,5.274,5.326,-8.035,134.843,173.291
0.423,32.091,5.261,5.324,-7.926,134.955,173.349
0.424,32.278,5.248,5.318,-7.804,135.081,173.414
0.426,32.482,5.236,5.308,-7.671,135.219,173.484
0.427,32.702,5.226,5.297,-7.527,135.367,173.559
0.429,32.934,5.220,5.286,-7.373,135.524,173.635
0.430,33.177,5.219,5.278,-7.211,135.688,173.712
0.432,33.429,5.225,5.275,-7.042,135.858,173.787
0.433,33.686,5.238,5.280,-6.867,136.032,173.858
0.435,33.946,5.261,5.295,-6.687,136.207,173.926
0.436,34.207,5.293,5.322,-6.505,136.382,173.990
0.437,34.465,5.333,5.357,-6.322,136.555,174.053
0.439,34.718,5.379,5.399,-6.143,136.722,174.115
0.440,34.962,5.428,5.444,-5.968,136.881,174.177
0.442,35.196,5.478,5.490,-5.801,137.031,174.241
0.443,35.415,5.527,5.533,-5.644,137.167,174.308
0.445,35.617,5.572,5.571,-5.499,137.289,174.380
0.446,35.801,5.612,5.602,-5.368,137.393,174.457
0.447,35.966,5.646,5.628,-5.255,137.478,174.541
0.449,36.112,5.675,5.650,-5.160,137.540,174.633
0.450,36.245,5.700,5.671,-5.083,137.583,174.733
0.452,36.371,5.720,5.693,-5.022,137.610,174.840
0.453,36.496,5.735,5.718,-4.974,137.626,174.955
0.455,36.623,5.746,5.748,-4.936,137.634,175.076
0.456,36.754,5.753,5.784,-4.907,137.639,175.202
0.458,36.888,5.757,5.824,-4.882,137.644,175.335
0.459,37.027,5.760,5.867,-4.861,137.653,175.472
0.460,37.171,5.763,5.909,-4.841,137.671,175.613
0.462,37.321,5.766,5.949,-4.818,137.702,175.758
0.463,37.479,5.772,5.984,-4.791,137.749,175.907
0.465,37.647,5.781,6.012,-4.759,137.813,176.058
0.466,37.824,5.795,6.031,-4.723,137.892,176.212
0.468,38.008,5.813,6.043,-4.683,137.984,176.367
0.469,38.199,5.834,6.049,-4.641,138.085,176.524
0.471,38.395,5.858,6.051,-4.598,138.193,176.681
0.472,38.593,5.884,6.051,-4.555,138.306,176.838
0.473,38.791,5.912,6.051,-4.513,138.420,176.994
0.475,38.987,5.941,6.052,-4.474,138.533,177.149
0.476,39.179,5.970,6.055,-4.437,138.643,177.302
0.478,39.364,6.000,6.062,-4.405,138.746,177.453
0.479,39.542,6.030,6.073,-4.378,138.841,177.602
0.481,39.712,6.063,6.089,-4.355,138.927,177.746
0.482,39.875,6.096,6.110,-4.336,139.005,177.888
0.483,40.029,6.132,6.136,-4.321,139.075,178.024
0.485,40.176,6.169,6.169,-4.309,139.137,178.157
0.486,40.315,6.209,6.208,-4.299,139.192,178.284
0.488,40.446,6.250,6.252,-4.290,139.239,178.406
0.489,40.569,6.291,6.299,-4.283,139.280,178.522
0.491,40.684,6.331,6.348,-4.276,139.313,178.632
0.492,40.791,6.370,6.397,-4.269,139.340,178.735
0.494,40.890,6.405,6.445,-4.261,139.361,178.831
0.495,40.980,6.437,6.489,-4.253,139.377,178.920
0.496,41.061,6.463,6.528,-4.245,139.388,179.000
0.498,41.133,6.484,6.563,-4.240,139.395,179.071
0.499,41.195,6.499,6.591,-4.238,139.401,179.133
0.501,41.246,6.507,6.613,-4.239,139.404,179.184
0.502,41.287,6.509,6.629,-4.246,139.408,179.224
0.504,41.319,6.503,6.638,-4.259,139.412,179.253
0.505,41.346,6.490,6.640,-4.279,139.417,179.270
0.506,41.375,6.470,6.634,-4.307,139.425,179.273
0.508,41.416,6.444,6.623,-4.345,139.437,179.264
0.509,41.468,6.415,6.608,-4.390,139.452,179.242
0.511,41.527,6.387,6.592,-4.438,139.469,179.214
0.512,41.584,6.361,6.576,-4.485,139.486,179.184
0.514,41.633,6.341,6.563,-4.523,139.500,179.158
0.515,41.664,6.329,6.555,-4.548,139.510,179.142
0.517,41.672,6.327,6.552,-4.554,139.514,179.140
0.518,41.698,6.331,6.552,-4.537,139.509,179.159
0.519,41.764,6.338,6.551,-4.490,139.495,179.203
0.521,41.878,6.342,6.545,-4.409,139.468,179.278
0.522,42.048,6.339,6.530,-4.287,139.426,179.389
0.524,42.279,6.325,6.501,-4.122,139.369,179.541
0.525,42.563,6.295,6.455,-3.919,139.299,179.727
0.527,42.889,6.245,6.389,-3.687,139.218,179.941
0.528,43.245,6.179,6.308,-3.434,139.130,180.174
0.529,43.618,6.100,6.218,-3.168,139.038,180.419
0.531,43.997,6.013,6.126,-2.899,138.944,180.669
0.532,44.370,5.921,6.038,-2.634,138.852,180.916
0.534,44.726,5.830,5.961,-2.382,138.765,181.152
0.535,45.053,5.742,5.901,-2.151,138.686,181.369
0.537,45.338,5.663,5.864,-1.951,138.618,181.560
0.538,45.571,5.592,5.846,-1.789,138.564,181.718
0.540,45.751,5.533,5.841,-1.664,138.525,181.842
0.541,45.886,5.484,5.843,-1.572,138.501,181.937
0.542,45.985,5.447,5.848,-1.504,138.492,182.009
0.544,46.058,5.423,5.849,-1.455,138.497,182.063
0.545,46.116,5.412,5.841,-1.417,138.515,182.104
0.547,46.173,5.416,5.818,-1.384,138.547,182.137
0.548,46.237,5.431,5.785,-1.349,138.591,182.167
0.550,46.316,5.454,5.743,-1.306,138.648,182.201
0.551,46.416,5.482,5.699,-1.247,138.718,182.243
0.553,46.543,5.511,5.655,-1.167,138.799,182.299
0.554,46.701,5.538,5.617,-1.061,138.891,182.371
0.555,46.887,5.561,5.589,-0.933,138.990,182.461
0.557,47.095,5.575,5.574,-0.787,139.094,182.569
0.558,47.324,5.581,5.569,-0.627,139.199,182.693
0.560,47.567,5.580,5.572,-0.457,139.302,182.834
0.561,47.822,5.574,5.577,-0.281,139.399,182.991
0.563,48.085,5.563,5.583,-0.104,139.488,183.164
0.564,48.354,5.547,5.583,0.070,139.564,183.353
0.565,48.625,5.530,5.575,0.238,139.625,183.557
0.567,48.898,5.510,5.556,0.395,139.668,183.777
0.568,49.173,5.491,5.528,0.538,139.690,184.010
0.570,49.448,5.472,5.496,0.664,139.691,184.255
0.571,49.722,5.454,5.465,0.776,139.676,184.505
0.573,49.992,5.440,5.439,0.873,139.648,184.754
0.574,50.253,5.431,5.424,0.957,139.609,184.999
0.576,50.501,5.426,5.425,1.026,139.563,185.233
0.577,50.732,5.429,5.444,1.082,139.512,185.451
0.578,50.941,5.437,5.479,1.126,139.461,185.648
0.580,51.121,5.450,5.526,1.157,139.412,185.819
0.581,51.269,5.468,5.579,1.176,139.368,185.959
0.583,51.378,5.489,5.633,1.183,139.333,186.062
0.584,51.449,5.513,5.683,1.181,139.307,186.128
0.586,51.490,5.538,5.724,1.172,139.290,186.164
0.587,51.509,5.564,5.752,1.159,139.281,186.175
0.588,51.526,5.589,5.766,1.144,139.280,186.166
0.590,51.551,5.613,5.769,1.130,139.284,186.146
0.591,51.582,5.633,5.762,1.121,139.294,186.118
0.593,51.614,5.649,5.747,1.119,139.309,186.089
