"T","Distance","Radius","FreeRadius","X","Y","Z"
0.000,0.000,3.639,3.639,182.192,158.171,170.543
0.001,0.095,3.683,3.683,182.156,158.225,170.474
0.002,0.190,3.726,3.726,182.121,158.279,170.404
0.004,0.285,3.768,3.768,182.087,158.334,170.335
0.005,0.380,3.808,3.808,182.055,158.392,170.266
0.006,0.475,3.845,3.845,182.026,158.452,170.198
0.007,0.572,3.878,3.878,182.000,158.515,170.130
0.009,0.669,3.907,3.907,181.977,158.582,170.063
0.010,0.768,3.932,3.932,181.960,158.654,169.997
0.011,0.870,3.950,3.950,181.948,158.731,169.932
0.012,0.975,3.965,3.965,181.942,158.814,169.868
0.014,1.084,3.976,3.976,181.943,158.904,169.805
0.015,1.199,3.984,3.984,181.950,159.001,169.744
0.016,1.321,3.992,3.992,181.966,159.105,169.684
0.017,1.448,4.000,4.000,181.989,159.216,169.626
0.019,1.580,4.009,4.009,182.018,159.332,169.570
0.020,1.715,4.021,4.021,182.051,159.452,169.516
0.021,1.852,4.037,4.037,182.088,159.572,169.464
0.022,1.987,4.056,4.056,182.127,159.693,169.415
0.024,2.121,4.078,4.078,182.167,159.812,169.369
0.025,2.250,4.101,4.101,182.207,159.927,169.327
0.026,2.373,4.125,4.125,182.246,160.037,169.287
0.027,2.488,4.149,4.149,182.282,160.140,169.251
0.029,2.592,4.171,4.171,182.314,160.234,169.220
0.030,2.685,4.192,4.192,182.341,160.318,169.192
0.031,2.763,4.208,4.208,182.362,160.390,169.169
0.032,2.828,4.222,4.222,182.377,160.450,169.150
0.034,2.879,4.233,4.233,182.386,160.498,169.135
0.035,2.919,4.240,4.240,182.390,160.536,169.124
0.036,2.949,4.246,4.246,182.389,160.564,169.116
0.037,2.969,4.249,4.249,182.385,160.584,169.111
0.039,2.983,4.250,4.250,182.377,160.595,169.109
0.040,2.994,4.250,4.250,182.366,160.599,169.110
0.041,3.008,4.249,4.249,182.353,160.596,169.113
0.042,3.025,4.247,4.247,182.339,160.588,169.118
0.044,3.046,4.244,4.244,182.323,160.575,169.124
0.045,3.071,4.241,4.241,182.307,160.558,169.132
0.046,3.098,4.238,4.238,182.292,160.537,169.141
0.047,3.127,4.236,4.236,182.277,160.515,169.150
0.049,3.155,4.234,4.234,182.263,160.492,169.159
0.050,3.181,4.233,4.233,182.252,160.470,169.168
0.051,3.203,4.233,4.233,182.243,160.452,169.175
0.052,3.218,4.235,4.235,182.237,160.438,169.179
0.053,3.227,4.238,4.238,182.235,160.430,169.181
0.055,3.230,4.241,4.241,182.238,160.430,169.179
0.056,3.244,4.246,4.246,182.245,160.439,169.173
0.057,3.271,4.250,4.250,182.259,160.460,169.162
0.058,3.313,4.254,4.254,182.278,160.494,169.145
0.060,3.373,4.258,4.258,182.305,160.542,169.121
0.061,3.452,4.261,4.261,182.339,160.606,169.091
0.062,3.550,4.263,4.263,182.380,160.686,169.053
0.063,3.664,4.265,4.265,182.428,160.781,169.010
0.065,3.790,4.265,4.265,182.481,160.885,168.962
0.066,3.926,4.265,4.265,182.537,160.997,168.912
0.067,4.066,4.265,4.265,182.596,161.114,168.860
0.068,4.208,4.264,4.264,182.656,161.232,168.809
0.070,4.349,4.262,4.262,182.716,161.349,168.759
0.071,4.484,4.260,4.260,182.775,161.461,168.712
0.072,4.610,4.258,4.258,182.831,161.566,168.670
0.073,4.723,4.256,4.256,182.883,161.661,168.634
0.075,4.821,4.254,4.254,182.929,161.741,168.606
0.076,4.899,4.252,4.252,182.969,161.806,168.586
0.077,4.957,4.250,4.250,183.002,161.852,168.577
0.078,4.997,4.250,4.250,183.028,161.883,168.577
0.080,5.025,4.250,4.250,183.046,161.902,168.585
0.081,5.047,4.252,4.252,183.059,161.913,168.599
0.082,5.069,4.254,4.254,183.065,161.919,168.619
0.083,5.094,4.257,4.257,183.065,161.924,168.644
0.085,5.123,4.258,4.258,183.061,161.932,168.672
0.086,5.158,4.256,4.256,183.051,161.946,168.702
0.087,5.199,4.249,4.249,183.037,161.969,168.733
0.088,5.250,4.237,4.237,183.019,162.005,168.764
0.090,5.315,4.218,4.218,182.997,162.058,168.794
0.091,5.397,4.190,4.190,182.973,162.132,168.821
0.092,5.500,4.153,4.153,182.945,162.228,168.845
0.093,5.624,4.107,4.107,182.915,162.347,168.866
0.095,5.768,4.057,4.057,182.885,162.487,168.886
0.096,5.930,4.004,4.004,182.855,162.644,168.905
0.097,6.107,3.950,3.950,182.825,162.818,168.925
0.098,6.299,3.899,3.899,182.798,163.007,168.946
0.100,6.503,3.852,3.852,182.773,163.207,168.971
0.101,6.717,3.813,3.813,182.753,163.418,169.000
0.102,6.939,3.784,3.784,182.738,163.638,169.035
0.103,7.169,3.765,3.765,182.728,163.864,169.075
0.104,7.404,3.755,3.755,182.725,164.094,169.124
0.106,7.644,3.754,3.754,182.731,164.326,169.181
0.107,7.887,3.761,3.761,182.744,164.559,169.248
0.108,8.132,3.776,3.776,182.766,164.792,169.322
0.109,8.379,3.798,3.798,182.793,165.025,169.399
0.111,8.626,3.827,3.827,182.823,165.258,169.477
0.112,8.872,3.862,3.862,182.855,165.491,169.550
0.113,9.116,3.902,3.902,182.886,165.724,169.615
0.114,9.357,3.946,3.946,182.915,165.957,169.668
0.116,9.595,3.993,3.993,182.938,166.191,169.706
0.117,9.830,4.042,4.042,182.955,166.424,169.724
0.118,10.064,4.091,4.091,182.963,166.658,169.718
0.119,10.301,4.140,4.140,182.960,166.893,169.685
0.121,10.545,4.187,4.187,182.944,167.128,169.621
0.122,10.802,4.232,4.232,182.913,167.363,169.522
0.123,11.076,4.274,4.275,182.868,167.598,169.390
0.124,11.364,4.318,4.318,182.809,167.831,169.229
0.126,11.665,4.363,4.363,182.741,168.059,169.045
0.127,11.975,4.414,4.414,182.664,168.282,168.844
0.128,12.288,4.473,4.473,182.582,168.496,168.631
0.129,12.601,4.541,4.541,182.497,168.702,168.412
0.131,12.907,4.622,4.622,182.410,168.895,168.191
0.132,13.201,4.717,4.717,182.325,169.076,167.975
0.133,13.477,4.826,4.826,182.242,169.241,167.769
0.134,13.731,4.943,4.943,182.166,169.389,167.579
0.136,13.955,5.065,5.064,182.098,169.519,167.409
0.137,14.144,5.185,5.184,182.040,169.628,167.266
0.138,14.296,5.298,5.298,181.993,169.715,167.151
0.139,14.414,5.400,5.400,181.956,169.784,167.062
0.141,14.503,5.486,5.486,181.928,169.836,166.996
0.142,14.565,5.550,5.550,181.909,169.873,166.950
0.143,14.604,5.591,5.591,181.896,169.897,166.921
0.144,14.625,5.612,5.613,181.890,169.910,166.906
0.146,14.631,5.617,5.618,181.889,169.914,166.903
0.147,14.637,5.610,5.612,181.891,169.912,166.907
0.148,14.650,5.596,5.597,181.896,169.904,166.917
0.149,14.668,5.578,5.579,181.903,169.894,166.930
0.150,14.686,5.560,5.560,181.911,169.882,166.941
0.152,14.701,5.546,5.546,181.918,169.873,166.950
0.153,14.711,5.539,5.537,181.924,169.865,166.953
0.154,14.717,5.538,5.535,181.928,169.861,166.950
0.155,14.726,5.543,5.538,181.930,169.859,166.941
0.157,14.740,5.551,5.546,181.930,169.860,166.928
0.158,14.759,5.562,5.556,181.927,169.863,166.909
0.159,14.785,5.574,5.569,181.921,169.868,166.885
0.160,14.816,5.587,5.584,181.911,169.876,166.856
0.162,14.854,5.598,5.599,181.897,169.885,166.822
0.163,14.898,5.609,5.614,181.879,169.897,166.784
0.164,14.948,5.617,5.629,181.856,169.910,166.741
0.165,15.005,5.625,5.643,181.828,169.925,166.694
0.167,15.069,5.633,5.658,181.795,169.941,166.642
0.168,15.138,5.641,5.672,181.756,169.959,166.587
0.169,15.213,5.649,5.686,181.712,169.978,166.529
0.170,15.292,5.659,5.699,181.665,169.998,166.469
0.172,15.373,5.671,5.712,181.615,170.017,166.409
0.173,15.454,5.685,5.725,181.564,170.037,166.349
0.174,15.534,5.701,5.738,181.512,170.056,166.291
0.175,15.612,5.717,5.749,181.460,170.075,166.237
0.177,15.685,5.734,5.759,181.411,170.092,166.186
0.178,15.752,5.749,5.768,181.364,170.108,166.140
0.179,15.812,5.763,5.776,181.320,170.122,166.101
0.180,15.863,5.775,5.781,181.282,170.133,166.069
0.182,15.904,5.783,5.784,181.250,170.142,166.046
0.183,15.933,5.788,5.785,181.224,170.147,166.033
0.184,15.953,5.788,5.783,181.205,170.150,166.028
0.185,15.966,5.785,5.780,181.192,170.150,166.030
0.187,15.976,5.780,5.775,181.184,170.149,166.037
0.188,15.986,5.772,5.768,181.182,170.146,166.046
0.189,15.997,5.763,5.760,181.183,170.142,166.057
0.190,16.009,5.752,5.751,181.188,170.138,166.066
0.192,16.020,5.741,5.741,181.196,170.133,166.072
0.193,16.031,5.730,5.730,181.206,170.129,166.074
0.194,16.045,5.718,5.719,181.218,170.126,166.069
0.195,16.064,5.706,5.707,181.231,170.124,166.055
0.197,16.091,5.691,5.693,181.245,170.124,166.030
0.198,16.131,5.675,5.676,181.258,170.125,165.994
0.199,16.182,5.656,5.657,181.271,170.130,165.944
0.200,16.247,5.634,5.634,181.284,170.140,165.881
0.201,16.325,5.608,5.608,181.297,170.156,165.806
0.203,16.417,5.577,5.577,181.309,170.179,165.718
0.204,16.523,5.541,5.541,181.322,170.211,165.618
0.205,16.643,5.500,5.500,181.336,170.253,165.506
0.206,16.779,5.453,5.453,181.350,170.306,165.381
0.208,16.931,5.399,5.400,181.364,170.373,165.246
0.209,17.100,5.339,5.339,181.379,170.454,165.098
0.210,17.287,5.272,5.272,181.395,170.551,164.939
0.211,17.493,5.197,5.197,181.412,170.665,164.769
0.213,17.718,5.113,5.113,181.430,170.798,164.588
0.214,17.961,5.023,5.023,181.449,170.948,164.398
0.215,18.219,4.928,4.928,181.469,171.113,164.200
0.216,18.486,4.832,4.831,181.489,171.288,163.999
0.218,18.759,4.737,4.735,181.510,171.470,163.797
0.219,19.033,4.645,4.644,181.530,171.655,163.596
0.220,19.303,4.560,4.559,181.549,171.841,163.400
0.221,19.566,4.485,4.484,181.568,172.023,163.212
0.223,19.816,4.421,4.422,181.585,172.197,163.034
0.224,20.048,4.371,4.373,181.601,172.360,162.869
0.225,20.259,4.333,4.336,181.615,172.510,162.721
0.226,20.444,4.305,4.310,181.626,172.641,162.591
0.228,20.598,4.288,4.293,181.635,172.750,162.483
0.229,20.720,4.278,4.283,181.642,172.837,162.398
0.230,20.812,4.275,4.279,181.646,172.902,162.334
0.231,20.877,4.277,4.280,181.648,172.950,162.289
0.233,20.920,4.284,4.283,181.649,172.981,162.260
0.234,20.943,4.294,4.288,181.649,173.000,162.246
0.235,20.951,4.305,4.294,181.647,173.008,162.244
0.236,20.960,4.318,4.302,181.645,173.008,162.252
0.238,20.977,4.330,4.311,181.643,173.003,162.268
0.239,20.999,4.342,4.321,181.641,172.995,162.289
0.240,21.025,4.351,4.333,181.640,172.987,162.314
0.241,21.052,4.357,4.346,181.639,172.982,162.340
0.243,21.077,4.360,4.361,181.640,172.982,162.365
0.244,21.100,4.357,4.377,181.642,172.989,162.387
0.245,21.124,4.350,4.393,181.645,173.003,162.406
0.246,21.152,4.339,4.408,181.648,173.026,162.421
0.248,21.186,4.325,4.421,181.651,173.057,162.433
0.249,21.226,4.307,4.431,181.653,173.097,162.442
0.250,21.275,4.286,4.437,181.653,173.146,162.447
0.251,21.333,4.263,4.438,181.652,173.204,162.447
0.252,21.401,4.237,4.432,181.648,173.271,162.444
0.254,21.479,4.210,4.419,181.641,173.349,162.437
0.255,21.568,4.182,4.400,181.630,173.436,162.425
0.256,21.668,4.153,4.376,181.614,173.534,162.409
0.257,21.781,4.124,4.346,181.594,173.642,162.388
0.259,21.905,4.096,4.314,181.568,173.762,162.362
0.260,22.040,4.070,4.279,181.538,173.889,162.332
0.261,22.181,4.045,4.243,181.504,174.023,162.300
0.262,22.326,4.022,4.207,181.468,174.159,162.265
0.264,22.472,4.003,4.171,181.431,174.295,162.228
0.265,22.616,3.986,4.136,181.395,174.429,162.191
0.266,22.755,3.972,4.104,181.359,174.558,162.155
0.267,22.885,3.960,4.074,181.325,174.679,162.119
0.269,23.003,3.950,4.047,181.296,174.788,162.086
0.270,23.107,3.942,4.024,181.271,174.885,162.055
0.271,23.194,3.936,4.006,181.251,174.964,162.028
0.272,23.259,3.930,3.992,181.239,175.025,162.006
0.274,23.302,3.926,3.984,181.235,175.064,161.989
0.275,23.325,3.922,3.980,181.237,175.084,161.978
0.276,23.336,3.918,3.980,181.245,175.088,161.971
0.277,23.349,3.914,3.982,181.256,175.082,161.969
0.279,23.367,3.909,3.985,181.268,175.069,161.970
0.280,23.387,3.904,3.987,181.279,175.053,161.974
0.281,23.404,3.897,3.987,181.287,175.040,161.982
0.282,23.416,3.888,3.985,181.291,175.032,161.991
0.284,23.429,3.877,3.978,181.287,175.036,162.003
0.285,23.454,3.865,3.966,181.275,175.054,162.015
0.286,23.500,3.851,3.951,181.252,175.091,162.028
0.287,23.572,3.836,3.933,181.216,175.152,162.041
0.289,23.674,3.821,3.913,181.165,175.241,162.054
0.290,23.808,3.806,3.892,181.100,175.357,162.066
0.291,23.968,3.791,3.870,181.022,175.496,162.077
0.292,24.149,3.778,3.848,180.934,175.654,162.087
0.294,24.349,3.766,3.827,180.837,175.828,162.095
0.295,24.561,3.756,3.808,180.734,176.013,162.101
0.296,24.781,3.748,3.790,180.626,176.205,162.105
0.297,25.005,3.741,3.774,180.515,176.400,162.107
0.299,25.229,3.737,3.761,180.403,176.594,162.106
0.300,25.447,3.733,3.749,180.293,176.782,162.102
0.301,25.656,3.732,3.740,180.186,176.962,162.094
0.302,25.851,3.731,3.734,180.085,177.127,162.083
0.303,26.027,3.733,3.731,179.991,177.276,162.068
0.305,26.184,3.735,3.731,179.905,177.405,162.049
0.306,26.322,3.739,3.733,179.826,177.517,162.028
0.307,26.445,3.743,3.738,179.754,177.614,162.004
0.308,26.554,3.749,3.743,179.687,177.697,161.979
0.310,26.653,3.754,3.750,179.625,177.769,161.953
0.311,26.742,3.760,3.757,179.567,177.831,161.928
0.312,26.823,3.765,3.764,179.512,177.886,161.904
0.313,26.899,3.771,3.771,179.458,177.936,161.882
0.315,26.972,3.776,3.777,179.406,177.982,161.863
0.316,27.042,3.781,3.784,179.354,178.027,161.847
0.317,27.113,3.788,3.791,179.301,178.072,161.836
0.318,27.186,3.796,3.800,179.246,178.120,161.831
0.320,27.263,3.808,3.811,179.189,178.172,161.831
0.321,27.345,3.822,3.826,179.130,178.228,161.835
0.322,27.431,3.841,3.844,179.070,178.289,161.843
0.323,27.521,3.864,3.868,179.008,178.354,161.853
0.325,27.615,3.893,3.896,178.946,178.424,161.864
0.326,27.712,3.925,3.928,178.884,178.498,161.874
0.327,27.813,3.960,3.962,178.822,178.577,161.883
0.328,27.917,3.996,3.998,178.760,178.660,161.889
0.330,28.023,4.031,4.032,178.700,178.748,161.891
0.331,28.134,4.065,4.065,178.640,178.841,161.887
0.332,28.247,4.094,4.095,178.583,178.938,161.878
0.333,28.365,4.119,4.119,178.528,179.041,161.860
0.335,28.487,4.138,4.138,178.475,179.148,161.834
0.336,28.613,4.152,4.152,178.426,179.259,161.800
0.337,28.742,4.161,4.161,178.380,179.372,161.761
0.338,28.871,4.167,4.167,178.338,179.486,161.717
0.340,29.000,4.171,4.172,178.299,179.600,161.671
0.341,29.126,4.175,4.175,178.265,179.712,161.623
0.342,29.249,4.178,4.178,178.236,179.821,161.575
0.343,29.366,4.182,4.182,178.212,179.926,161.529
0.345,29.475,4.189,4.189,178.193,180.025,161.486
0.346,29.575,4.198,4.197,178.180,180.117,161.448
0.347,29.665,4.208,4.206,178.173,180.200,161.416
0.348,29.742,4.219,4.217,178.172,180.274,161.393
0.350,29.807,4.231,4.229,178.178,180.337,161.378
0.351,29.862,4.243,4.241,178.189,180.390,161.371
0.352,29.911,4.255,4.254,178.203,180.437,161.371
0.353,29.954,4.267,4.267,178.217,180.478,161.374
0.354,29.995,4.277,4.279,178.230,180.516,161.380
0.356,30.034,4.287,4.291,178.238,180.554,161.385
0.357,30.074,4.298,4.303,178.241,180.593,161.389
0.358,30.117,4.309,4.316,178.235,180.637,161.389
0.359,30.170,4.323,4.331,178.219,180.686,161.383
0.361,30.235,4.339,4.347,178.189,180.743,161.370
0.362,30.320,4.359,4.365,178.145,180.811,161.347
0.363,30.427,4.384,4.386,178.084,180.891,161.312
0.364,30.561,4.414,4.410,178.003,180.986,161.263
0.366,30.720,4.449,4.437,177.904,181.096,161.202
0.367,30.901,4.487,4.468,177.790,181.216,161.129
0.368,31.099,4.526,4.501,177.665,181.346,161.047
0.369,31.309,4.567,4.538,177.532,181.481,160.958
0.371,31.527,4.606,4.578,177.393,181.621,160.864
0.372,31.748,4.643,4.621,177.253,181.762,160.767
0.373,31.968,4.676,4.667,177.115,181.901,160.669
0.374,32.182,4.704,4.716,176.981,182.037,160.571
0.376,32.385,4.726,4.766,176.856,182.166,160.476
0.377,32.573,4.744,4.817,176.743,182.286,160.386
0.378,32.741,4.758,4.866,176.644,182.394,160.303
0.379,32.886,4.769,4.912,176.564,182.489,160.229
0.381,33.005,4.779,4.952,176.502,182.568,160.164
0.382,33.101,4.789,4.985,176.458,182.633,160.109
0.383,33.177,4.799,5.009,176.428,182.685,160.063
0.384,33.235,4.810,5.023,176.411,182.725,160.025
0.386,33.277,4.823,5.026,176.405,182.753,159.995
0.387,33.306,4.837,5.020,176.408,182.772,159.972
0.388,33.326,4.851,5.009,176.417,182.781,159.957
0.389,33.342,4.865,4.994,176.430,182.783,159.949
0.391,33.359,4.876,4.979,176.446,182.777,159.947
0.392,33.379,4.885,4.965,176.462,182.765,159.951
0.393,33.404,4.890,4.954,176.477,182.747,159.961
0.394,33.432,4.891,4.951,176.487,182.726,159.976
0.396,33.463,4.887,4.954,176.493,182.702,159.995
0.397,33.494,4.880,4.964,176.493,182.679,160.016
0.398,33.523,4.869,4.976,176.490,182.659,160.036
0.399,33.545,4.858,4.990,176.483,182.645,160.053
0.400,33.561,4.845,5.002,176.472,182.641,160.063
0.402,33.577,4.833,5.011,176.459,182.650,160.065
0.403,33.607,4.823,5.014,176.443,182.674,160.057
0.404,33.658,4.815,5.010,176.426,182.717,160.035
0.405,33.735,4.811,4.997,176.407,182.781,159.997
0.407,33.843,4.811,4.979,176.388,182.870,159.940
0.408,33.984,4.818,4.960,176.368,182.987,159.862
0.409,34.164,4.832,4.944,176.349,183.135,159.761
0.410,34.384,4.854,4.934,176.330,183.314,159.636
0.412,34.639,4.887,4.936,176.313,183.522,159.490
0.413,34.921,4.930,4.951,176.295,183.753,159.328
0.414,35.225,4.986,4.986,176.279,184.002,159.155
0.415,35.542,5.055,5.041,176.262,184.263,158.975
0.417,35.867,5.133,5.113,176.246,184.532,158.795
0.418,36.192,5.219,5.198,176.231,184.804,158.618
0.419,36.511,5.308,5.290,176.215,185.074,158.448
0.420,36.816,5.398,5.385,176.200,185.336,158.292
0.422,37.103,5.484,5.478,176.184,185.586,158.154
0.423,37.363,5.565,5.563,176.169,185.819,158.037
0.424,37.591,5.635,5.635,176.154,186.029,157.949
0.425,37.784,5.694,5.692,176.138,186.212,157.891
0.427,37.945,5.741,5.734,176.122,186.370,157.862
0.428,38.080,5.777,5.764,176.106,186.504,157.859
0.429,38.197,5.805,5.786,176.090,186.617,157.877
0.430,38.300,5.827,5.804,176.073,186.713,157.912
0.432,38.395,5.842,5.820,176.056,186.792,157.962
0.433,38.485,5.854,5.837,176.039,186.858,158.021
0.434,38.573,5.864,5.860,176.021,186.914,158.087
0.435,38.658,5.873,5.891,176.003,186.961,158.155
0.437,38.739,5.882,5.928,175.984,187.002,158.222
0.438,38.814,5.890,5.970,175.965,187.040,158.284
0.439,38.881,5.900,6.014,175.946,187.077,158.337
0.440,38.941,5.909,6.057,175.926,187.115,158.378
0.442,38.995,5.920,6.096,175.905,187.157,158.406
0.443,39.047,5.932,6.129,175.883,187.201,158.423
0.444,39.101,5.945,6.153,175.860,187.248,158.433
0.445,39.157,5.959,6.166,175.834,187.299,158.435
0.447,39.219,5.976,6.169,175.806,187.353,158.432
0.448,39.285,5.994,6.164,175.775,187.411,158.427
0.449,39.357,6.014,6.156,175.740,187.474,158.420
0.450,39.435,6.035,6.146,175.702,187.542,158.414
0.451,39.519,6.059,6.139,175.659,187.614,158.411
0.453,39.610,6.084,6.137,175.612,187.691,158.412
0.454,39.708,6.111,6.144,175.560,187.775,158.420
0.455,39.815,6.141,6.161,175.502,187.863,158.436
0.456,39.931,6.172,6.191,175.440,187.958,158.460
0.458,40.053,6.204,6.229,175.373,188.056,158.491
0.459,40.181,6.236,6.274,175.304,188.157,158.528
0.460,40.312,6.269,6.323,175.234,188.259,158.570
0.461,40.444,6.302,6.374,175.164,188.362,158.615
0.463,40.576,6.333,6.424,175.094,188.463,158.662
0.464,40.705,6.364,6.470,175.027,188.562,158.710
0.465,40.829,6.392,6.510,174.964,188.658,158.757
0.466,40.946,6.418,6.543,174.905,188.749,158.802
0.468,41.055,6.441,6.570,174.853,188.834,158.844
0.469,41.152,6.462,6.592,174.807,188.912,158.882
0.470,41.237,6.481,6.609,174.770,188.981,158.914
0.471,41.308,6.496,6.622,174.742,189.041,158.940
0.473,41.367,6.508,6.633,174.722,189.092,158.960
0.474,41.414,6.518,6.642,174.708,189.135,158.975
0.475,41.451,6.523,6.649,174.701,189.170,158.984
0.476,41.480,6.526,6.657,174.698,189.197,158.990
0.478,41.500,6.527,6.663,174.699,189.218,158.992
0.479,41.515,6.526,6.669,174.703,189.232,158.990
0.480,41.526,6.524,6.674,174.709,189.240,158.986
0.481,41.536,6.521,6.677,174.717,189.243,158.979
0.483,41.547,6.520,6.680,174.724,189.240,158.970
0.484,41.561,6.520,6.681,174.729,189.232,158.961
0.485,41.577,6.522,6.681,174.733,189.220,158.950
0.486,41.596,6.526,6.679,174.735,189.205,158.939
0.488,41.616,6.532,6.676,174.734,189.188,158.929
0.489,41.636,6.539,6.672,174.732,189.171,158.919
0.490,41.654,6.546,6.666,174.728,189.156,158.910
0.491,41.667,6.551,6.660,174.725,189.144,158.904
0.493,41.675,6.555,6.654,174.722,189.138,158.900
0.494,41.678,6.555,6.647,174.720,189.140,158.898
0.495,41.689,6.552,6.639,174.719,189.151,158.901
0.496,41.712,6.545,6.632,174.721,189.172,158.907
0.498,41.749,6.533,6.625,174.725,189.207,158.918
0.499,41.801,6.518,6.617,174.733,189.257,158.934
0.500,41.871,6.500,6.609,174.744,189.322,158.955
0.501,41.961,6.481,6.600,174.761,189.406,158.983
0.502,42.066,6.460,6.592,174.780,189.504,159.015
0.504,42.184,6.438,6.582,174.803,189.614,159.052
0.505,42.311,6.417,6.572,174.827,189.732,159.092
0.506,42.443,6.396,6.561,174.852,189.855,159.133
0.507,42.577,6.377,6.550,174.876,189.979,159.176
