"T","Distance","Radius","FreeRadius","X","Y","Z"
0.000,0.000,3.395,3.395,190.435,170.248,171.860
0.001,0.105,3.450,3.450,190.511,170.194,171.812
0.003,0.209,3.504,3.504,190.586,170.141,171.764
0.004,0.310,3.557,3.557,190.659,170.088,171.716
0.006,0.408,3.607,3.607,190.729,170.038,171.671
0.007,0.501,3.654,3.654,190.795,169.989,171.628
0.008,0.587,3.697,3.697,190.856,169.944,171.587
0.010,0.666,3.735,3.735,190.911,169.902,171.550
0.011,0.736,3.768,3.768,190.960,169.863,171.516
0.013,0.796,3.795,3.795,191.000,169.829,171.487
0.014,0.846,3.817,3.817,191.032,169.801,171.463
0.015,0.883,3.834,3.834,191.054,169.778,171.444
0.017,0.907,3.847,3.847,191.066,169.760,171.431
0.018,0.923,3.856,3.856,191.070,169.748,171.423
0.019,0.932,3.861,3.861,191.068,169.741,171.418
0.021,0.939,3.864,3.864,191.061,169.737,171.416
0.022,0.948,3.865,3.865,191.053,169.737,171.417
0.024,0.958,3.863,3.863,191.044,169.740,171.419
0.025,0.967,3.861,3.861,191.036,169.745,171.422
0.026,0.975,3.859,3.859,191.032,169.751,171.425
0.028,0.982,3.858,3.858,191.034,169.758,171.426
0.029,0.994,3.858,3.858,191.042,169.766,171.425
0.031,1.013,3.860,3.860,191.060,169.773,171.422
0.032,1.042,3.865,3.865,191.087,169.780,171.416
0.033,1.078,3.872,3.872,191.121,169.786,171.407
0.035,1.120,3.881,3.881,191.161,169.792,171.396
0.036,1.166,3.891,3.891,191.206,169.797,171.384
0.038,1.215,3.901,3.901,191.253,169.801,171.371
0.039,1.265,3.912,3.912,191.300,169.805,171.357
0.040,1.314,3.921,3.921,191.347,169.808,171.343
0.042,1.361,3.930,3.930,191.392,169.811,171.329
0.043,1.404,3.937,3.937,191.433,169.813,171.315
0.045,1.440,3.944,3.944,191.467,169.814,171.303
0.046,1.470,3.950,3.950,191.495,169.815,171.293
0.047,1.494,3.955,3.955,191.517,169.816,171.283
0.049,1.512,3.959,3.959,191.533,169.816,171.275
0.050,1.527,3.964,3.964,191.546,169.816,171.268
0.052,1.540,3.967,3.967,191.557,169.818,171.262
0.053,1.552,3.971,3.971,191.568,169.819,171.256
0.054,1.565,3.975,3.975,191.579,169.823,171.250
0.056,1.581,3.978,3.978,191.594,169.827,171.244
0.057,1.601,3.983,3.983,191.611,169.834,171.238
0.058,1.627,3.988,3.988,191.635,169.842,171.231
0.060,1.660,3.993,3.993,191.665,169.853,171.223
0.061,1.701,4.000,4.000,191.703,169.866,171.215
0.063,1.751,4.008,4.008,191.749,169.882,171.205
0.064,1.807,4.017,4.017,191.801,169.900,171.195
0.065,1.870,4.027,4.027,191.860,169.920,171.184
0.067,1.939,4.039,4.039,191.924,169.942,171.173
0.068,2.013,4.053,4.053,191.993,169.965,171.161
0.070,2.091,4.069,4.069,192.067,169.989,171.149
0.071,2.174,4.088,4.088,192.145,170.014,171.137
0.072,2.260,4.108,4.108,192.226,170.040,171.124
0.074,2.349,4.131,4.131,192.310,170.066,171.112
0.075,2.440,4.155,4.155,192.397,170.092,171.101
0.077,2.533,4.182,4.182,192.485,170.119,171.089
0.078,2.628,4.210,4.210,192.575,170.147,171.076
0.079,2.725,4.239,4.239,192.667,170.176,171.062
0.081,2.826,4.270,4.270,192.761,170.207,171.045
0.082,2.930,4.302,4.302,192.858,170.241,171.026
0.084,3.039,4.335,4.335,192.957,170.278,171.002
0.085,3.152,4.369,4.369,193.058,170.319,170.973
0.086,3.270,4.404,4.404,193.162,170.364,170.939
0.088,3.395,4.440,4.440,193.269,170.415,170.898
0.089,3.528,4.476,4.476,193.379,170.470,170.850
0.091,3.668,4.513,4.513,193.492,170.532,170.794
0.092,3.814,4.550,4.550,193.606,170.598,170.731
0.093,3.964,4.586,4.586,193.720,170.668,170.663
0.095,4.114,4.621,4.621,193.830,170.740,170.592
0.096,4.261,4.653,4.653,193.936,170.811,170.518
0.097,4.402,4.681,4.681,194.034,170.881,170.445
0.099,4.534,4.703,4.703,194.123,170.948,170.373
0.100,4.655,4.719,4.719,194.201,171.009,170.305
0.102,4.759,4.727,4.727,194.265,171.064,170.242
0.103,4.846,4.728,4.728,194.313,171.110,170.187
0.104,4.913,4.723,4.723,194.343,171.147,170.140
0.106,4.959,4.714,4.714,194.354,171.171,170.103
0.107,4.990,4.704,4.704,194.349,171.186,170.075
0.109,5.015,4.694,4.694,194.335,171.192,170.056
0.110,5.039,4.687,4.687,194.316,171.191,170.043
0.111,5.060,4.683,4.683,194.297,171.184,170.035
0.113,5.078,4.684,4.684,194.283,171.174,170.031
0.114,5.092,4.688,4.688,194.280,171.161,170.029
0.116,5.110,4.693,4.693,194.292,171.147,170.029
0.117,5.146,4.696,4.696,194.325,171.134,170.029
0.118,5.206,4.696,4.696,194.384,171.123,170.027
0.120,5.296,4.689,4.689,194.474,171.116,170.023
0.121,5.418,4.673,4.673,194.596,171.114,170.015
0.123,5.566,4.648,4.648,194.744,171.116,170.003
0.124,5.734,4.614,4.614,194.910,171.121,169.989
0.125,5.913,4.574,4.574,195.088,171.128,169.973
0.127,6.096,4.531,4.531,195.271,171.137,169.954
0.128,6.278,4.486,4.486,195.451,171.147,169.934
0.130,6.450,4.442,4.442,195.622,171.157,169.913
0.131,6.605,4.402,4.402,195.775,171.166,169.891
0.132,6.738,4.367,4.367,195.906,171.173,169.870
0.134,6.839,4.339,4.339,196.005,171.178,169.848
0.135,6.904,4.316,4.316,196.067,171.180,169.827
0.136,6.937,4.299,4.299,196.092,171.179,169.808
0.138,6.954,4.288,4.288,196.089,171.175,169.791
0.139,6.982,4.282,4.282,196.066,171.170,169.776
0.141,7.019,4.280,4.280,196.031,171.165,169.766
0.142,7.059,4.284,4.284,195.992,171.160,169.760
0.143,7.094,4.291,4.291,195.957,171.157,169.760
0.145,7.117,4.301,4.301,195.935,171.156,169.767
0.146,7.131,4.314,4.314,195.933,171.159,169.780
0.148,7.166,4.329,4.329,195.961,171.165,169.802
0.149,7.238,4.345,4.345,196.025,171.177,169.833
0.150,7.355,4.361,4.361,196.133,171.195,169.873
0.152,7.513,4.377,4.377,196.281,171.218,169.921
0.153,7.704,4.391,4.391,196.463,171.246,169.975
0.155,7.921,4.403,4.403,196.670,171.277,170.032
0.156,8.157,4.410,4.410,196.896,171.311,170.091
0.157,8.404,4.412,4.412,197.134,171.346,170.148
0.159,8.654,4.408,4.408,197.375,171.382,170.202
0.160,8.900,4.395,4.395,197.613,171.418,170.251
0.162,9.134,4.372,4.372,197.841,171.453,170.291
0.163,9.349,4.340,4.340,198.051,171.486,170.321
0.164,9.537,4.301,4.301,198.237,171.516,170.339
0.166,9.695,4.260,4.260,198.392,171.542,170.343
0.167,9.827,4.220,4.220,198.522,171.565,170.331
0.169,9.940,4.187,4.187,198.629,171.586,170.305
0.170,10.041,4.164,4.164,198.720,171.605,170.264
0.171,10.140,4.156,4.156,198.799,171.624,170.208
0.173,10.242,4.167,4.167,198.869,171.643,170.136
0.174,10.355,4.197,4.197,198.937,171.662,170.049
0.175,10.480,4.241,4.241,199.007,171.683,169.946
0.177,10.623,4.299,4.299,199.082,171.707,169.827
0.178,10.786,4.366,4.366,199.169,171.733,169.692
0.180,10.970,4.440,4.440,199.271,171.763,169.541
0.181,11.177,4.518,4.518,199.389,171.797,169.376
0.182,11.401,4.597,4.597,199.521,171.835,169.199
0.184,11.637,4.675,4.675,199.663,171.874,169.015
0.185,11.879,4.751,4.751,199.812,171.915,168.827
0.187,12.124,4.823,4.823,199.963,171.957,168.639
0.188,12.366,4.891,4.891,200.115,171.999,168.455
0.189,12.600,4.953,4.953,200.263,172.040,168.279
0.191,12.820,5.009,5.009,200.404,172.079,168.114
0.192,13.022,5.056,5.056,200.534,172.116,167.964
0.194,13.201,5.096,5.096,200.650,172.150,167.833
0.195,13.351,5.128,5.128,200.749,172.179,167.724
0.196,13.474,5.156,5.156,200.832,172.206,167.637
0.198,13.573,5.179,5.179,200.900,172.229,167.569
0.199,13.652,5.200,5.200,200.956,172.250,167.517
0.201,13.715,5.221,5.221,201.002,172.269,167.479
0.202,13.767,5.243,5.243,201.041,172.288,167.451
0.203,13.810,5.266,5.266,201.076,172.307,167.431
0.205,13.851,5.293,5.293,201.108,172.326,167.416
0.206,13.891,5.321,5.321,201.140,172.347,167.404
0.208,13.935,5.352,5.352,201.174,172.370,167.391
0.209,13.985,5.384,5.384,201.214,172.397,167.375
0.210,14.044,5.418,5.418,201.260,172.426,167.353
0.212,14.111,5.454,5.454,201.312,172.459,167.327
0.213,14.183,5.490,5.490,201.368,172.493,167.296
0.214,14.260,5.528,5.528,201.428,172.529,167.264
0.216,14.339,5.564,5.564,201.490,172.564,167.230
0.217,14.418,5.598,5.598,201.551,172.599,167.196
0.219,14.494,5.628,5.628,201.612,172.632,167.163
0.220,14.567,5.654,5.654,201.670,172.663,167.133
0.221,14.633,5.673,5.673,201.725,172.689,167.106
0.223,14.691,5.685,5.685,201.774,172.711,167.084
0.224,14.739,5.690,5.690,201.817,172.728,167.069
0.226,14.777,5.689,5.689,201.852,172.739,167.060
0.227,14.807,5.686,5.686,201.880,172.746,167.056
0.228,14.830,5.682,5.682,201.903,172.750,167.055
0.230,14.848,5.680,5.680,201.921,172.753,167.055
0.231,14.862,5.682,5.682,201.935,172.756,167.054
0.233,14.875,5.690,5.690,201.946,172.760,167.052
0.234,14.888,5.705,5.705,201.955,172.768,167.045
0.235,14.907,5.726,5.726,201.963,172.780,167.033
0.237,14.935,5.751,5.751,201.970,172.799,167.013
0.238,14.975,5.777,5.777,201.978,172.825,166.984
0.240,15.030,5.803,5.803,201.987,172.860,166.944
0.241,15.098,5.827,5.827,201.998,172.904,166.893
0.242,15.177,5.847,5.847,202.010,172.955,166.833
0.244,15.264,5.861,5.861,202.023,173.011,166.768
0.245,15.356,5.870,5.870,202.036,173.070,166.699
0.247,15.449,5.874,5.875,202.050,173.129,166.628
0.248,15.542,5.876,5.876,202.062,173.189,166.558
0.249,15.630,5.875,5.875,202.074,173.245,166.491
0.251,15.710,5.873,5.873,202.084,173.297,166.430
0.252,15.781,5.871,5.871,202.093,173.342,166.377
0.253,15.838,5.869,5.869,202.099,173.378,166.334
0.255,15.879,5.869,5.868,202.103,173.405,166.302
0.256,15.906,5.869,5.868,202.104,173.423,166.282
0.258,15.923,5.870,5.868,202.104,173.434,166.269
0.259,15.933,5.870,5.869,202.103,173.441,166.262
0.260,15.939,5.870,5.869,202.102,173.446,166.259
0.262,15.945,5.869,5.868,202.102,173.451,166.256
0.263,15.955,5.866,5.867,202.103,173.459,166.250
0.265,15.971,5.863,5.865,202.105,173.472,166.241
0.266,15.998,5.859,5.863,202.110,173.492,166.224
0.267,16.039,5.856,5.861,202.118,173.522,166.197
0.269,16.097,5.854,5.860,202.130,173.564,166.158
0.270,16.174,5.855,5.860,202.147,173.618,166.106
0.272,16.268,5.859,5.862,202.167,173.684,166.042
0.273,16.375,5.867,5.866,202.191,173.758,165.969
0.274,16.491,5.879,5.873,202.217,173.838,165.889
0.276,16.613,5.894,5.882,202.246,173.921,165.805
0.277,16.737,5.910,5.893,202.277,174.005,165.719
0.279,16.859,5.925,5.905,202.309,174.087,165.634
0.280,16.976,5.938,5.918,202.343,174.164,165.552
0.281,17.085,5.945,5.931,202.376,174.233,165.476
0.283,17.181,5.946,5.945,202.410,174.293,165.409
0.284,17.262,5.939,5.958,202.443,174.341,165.352
0.286,17.326,5.925,5.969,202.474,174.375,165.308
0.287,17.375,5.906,5.978,202.503,174.397,165.275
0.288,17.410,5.884,5.983,202.528,174.408,165.252
0.290,17.434,5.860,5.983,202.548,174.411,165.241
0.291,17.448,5.836,5.976,202.562,174.406,165.238
0.292,17.463,5.813,5.962,202.568,174.395,165.245
0.294,17.484,5.794,5.941,202.565,174.379,165.260
0.295,17.516,5.780,5.913,202.552,174.361,165.282
0.297,17.559,5.771,5.882,202.528,174.341,165.312
0.298,17.614,5.769,5.854,202.491,174.321,165.348
0.299,17.682,5.773,5.831,202.441,174.303,165.390
0.301,17.757,5.786,5.817,202.382,174.288,165.434
0.302,17.832,5.808,5.817,202.322,174.276,165.478
0.304,17.897,5.840,5.835,202.270,174.270,165.516
0.305,17.944,5.878,5.867,202.234,174.271,165.546
0.306,17.967,5.915,5.906,202.221,174.280,165.563
0.308,17.993,5.942,5.942,202.239,174.298,165.563
0.309,18.061,5.951,5.965,202.298,174.327,165.543
0.311,18.184,5.933,5.966,202.404,174.367,165.499
0.312,18.369,5.881,5.936,202.567,174.420,165.426
0.313,18.628,5.786,5.865,202.793,174.487,165.321
0.315,18.965,5.645,5.749,203.089,174.570,165.181
0.316,19.372,5.469,5.597,203.445,174.667,165.010
0.318,19.836,5.271,5.420,203.851,174.777,164.813
0.319,20.343,5.062,5.230,204.293,174.899,164.596
0.320,20.880,4.857,5.038,204.759,175.032,164.365
0.322,21.435,4.668,4.854,205.238,175.174,164.125
0.323,21.993,4.507,4.690,205.717,175.324,163.881
0.325,22.542,4.385,4.554,206.184,175.482,163.639
0.326,23.069,4.301,4.448,206.627,175.645,163.405
0.327,23.561,4.248,4.368,207.034,175.812,163.184
0.329,24.007,4.222,4.311,207.392,175.983,162.981
0.330,24.400,4.217,4.276,207.696,176.155,162.800
0.331,24.745,4.228,4.258,207.948,176.328,162.641
0.333,25.045,4.250,4.256,208.153,176.497,162.501
0.334,25.307,4.277,4.267,208.317,176.661,162.379
0.336,25.534,4.307,4.288,208.444,176.818,162.275
0.337,25.731,4.337,4.315,208.539,176.965,162.187
0.338,25.899,4.365,4.346,208.607,177.101,162.114
0.340,26.042,4.392,4.376,208.654,177.222,162.054
0.341,26.162,4.414,4.404,208.683,177.327,162.006
0.343,26.257,4.430,4.426,208.700,177.414,161.969
0.344,26.329,4.438,4.439,208.710,177.479,161.941
0.345,26.379,4.438,4.443,208.716,177.525,161.921
0.347,26.410,4.433,4.438,208.718,177.553,161.908
0.348,26.425,4.424,4.429,208.719,177.566,161.900
0.350,26.430,4.414,4.418,208.719,177.568,161.896
0.351,26.437,4.404,4.407,208.719,177.561,161.893
0.352,26.450,4.397,4.398,208.721,177.549,161.891
0.354,26.466,4.395,4.395,208.726,177.534,161.888
0.355,26.484,4.398,4.398,208.735,177.519,161.882
0.357,26.504,4.407,4.407,208.748,177.508,161.872
0.358,26.530,4.419,4.419,208.769,177.503,161.857
0.359,26.566,4.433,4.434,208.796,177.507,161.834
0.361,26.612,4.448,4.449,208.830,177.520,161.806
0.362,26.666,4.462,4.463,208.868,177.540,161.772
0.364,26.726,4.474,4.475,208.909,177.564,161.736
0.365,26.790,4.483,4.482,208.951,177.593,161.697
0.366,26.853,4.489,4.486,208.991,177.623,161.658
0.368,26.914,4.492,4.487,209.028,177.653,161.621
0.369,26.970,4.492,4.486,209.061,177.681,161.586
0.370,27.017,4.490,4.484,209.087,177.707,161.555
0.372,27.054,4.485,4.482,209.104,177.727,161.530
0.373,27.078,4.479,4.480,209.112,177.741,161.512
0.375,27.090,4.471,4.480,209.108,177.747,161.502
0.376,27.103,4.462,4.481,209.096,177.747,161.498
0.377,27.120,4.453,4.483,209.079,177.743,161.499
0.379,27.139,4.443,4.486,209.061,177.736,161.501
0.380,27.155,4.434,4.488,209.047,177.729,161.503
0.382,27.165,4.427,4.490,209.038,177.724,161.502
0.383,27.171,4.422,4.491,209.039,177.721,161.497
0.384,27.190,4.418,4.490,209.053,177.724,161.486
0.386,27.229,4.418,4.488,209.085,177.734,161.465
0.387,27.292,4.421,4.485,209.137,177.753,161.433
0.389,27.385,4.426,4.484,209.213,177.783,161.389
0.390,27.509,4.435,4.484,209.313,177.823,161.331
0.391,27.657,4.446,4.487,209.435,177.874,161.261
0.393,27.826,4.461,4.494,209.573,177.932,161.184
0.394,28.011,4.478,4.506,209.725,177.996,161.101
0.396,28.206,4.498,4.524,209.886,178.065,161.014
0.397,28.406,4.520,4.546,210.051,178.136,160.926
0.398,28.607,4.544,4.573,210.218,178.208,160.841
0.400,28.804,4.569,4.601,210.383,178.279,160.760
0.401,28.991,4.595,4.630,210.540,178.347,160.685
0.403,29.164,4.622,4.660,210.687,178.411,160.621
0.404,29.318,4.647,4.688,210.820,178.469,160.568
0.405,29.452,4.672,4.714,210.937,178.520,160.527
0.407,29.569,4.696,4.737,211.041,178.565,160.497
0.408,29.669,4.719,4.758,211.131,178.604,160.477
0.409,29.756,4.739,4.778,211.209,178.638,160.464
0.411,29.829,4.758,4.795,211.276,178.667,160.458
0.412,29.891,4.775,4.812,211.334,178.691,160.457
0.414,29.944,4.790,4.827,211.382,178.711,160.460
0.415,29.988,4.802,4.842,211.423,178.727,160.466
0.416,30.025,4.812,4.856,211.457,178.740,160.472
0.418,30.056,4.820,4.869,211.486,178.750,160.478
0.419,30.081,4.827,4.880,211.510,178.757,160.483
0.421,30.103,4.832,4.891,211.531,178.762,160.486
0.422,30.121,4.836,4.899,211.548,178.767,160.486
0.423,30.139,4.839,4.906,211.565,178.772,160.483
0.425,30.157,4.842,4.911,211.580,178.779,160.476
0.426,30.178,4.845,4.914,211.596,178.789,160.466
0.428,30.205,4.848,4.917,211.614,178.802,160.451
0.429,30.238,4.852,4.920,211.633,178.820,160.431
0.430,30.279,4.856,4.923,211.656,178.844,160.407
0.432,30.330,4.862,4.929,211.684,178.874,160.376
0.433,30.393,4.870,4.938,211.716,178.913,160.339
0.435,30.467,4.880,4.951,211.754,178.960,160.296
0.436,30.552,4.891,4.969,211.797,179.014,160.248
0.437,30.644,4.904,4.990,211.844,179.073,160.194
0.439,30.744,4.918,5.012,211.895,179.135,160.135
0.440,30.848,4.932,5.034,211.949,179.199,160.072
0.442,30.956,4.946,5.056,212.005,179.263,160.006
0.443,31.065,4.959,5.074,212.063,179.325,159.937
0.444,31.174,4.971,5.089,212.121,179.384,159.866
0.446,31.282,4.980,5.098,212.178,179.438,159.793
0.447,31.387,4.988,5.102,212.236,179.485,159.719
0.448,31.487,4.994,5.103,212.291,179.524,159.644
0.450,31.585,4.999,5.101,212.345,179.554,159.570
0.451,31.680,5.004,5.097,212.399,179.578,159.495
0.453,31.774,5.009,5.094,212.453,179.597,159.420
0.454,31.869,5.014,5.092,212.508,179.612,159.345
0.455,31.964,5.019,5.091,212.566,179.626,159.270
0.457,32.061,5.026,5.094,212.627,179.640,159.196
0.458,32.161,5.033,5.100,212.692,179.656,159.121
0.460,32.264,5.041,5.109,212.761,179.675,159.048
0.461,32.373,5.050,5.123,212.837,179.700,158.975
0.462,32.487,5.060,5.142,212.920,179.732,158.902
0.464,32.609,5.070,5.165,213.011,179.771,158.830
0.465,32.739,5.082,5.194,213.108,179.819,158.759
0.467,32.877,5.095,5.228,213.213,179.872,158.686
0.468,33.021,5.109,5.265,213.323,179.930,158.613
0.469,33.171,5.127,5.305,213.438,179.989,158.538
0.471,33.326,5.149,5.345,213.558,180.049,158.460
0.472,33.485,5.175,5.384,213.681,180.108,158.379
0.474,33.647,5.207,5.420,213.806,180.164,158.293
0.475,33.811,5.245,5.453,213.934,180.215,158.203
0.476,33.977,5.289,5.479,214.062,180.259,158.108
0.478,34.145,5.339,5.502,214.191,180.295,158.006
0.479,34.315,5.391,5.522,214.319,180.322,157.899
0.481,34.486,5.445,5.539,214.448,180.341,157.787
0.482,34.657,5.497,5.556,214.576,180.354,157.674
0.483,34.827,5.546,5.573,214.705,180.364,157.563
0.485,34.995,5.590,5.592,214.834,180.372,157.456
0.486,35.160,5.627,5.613,214.965,180.380,157.357
0.487,35.319,5.659,5.637,215.096,180.391,157.267
0.489,35.474,5.687,5.664,215.229,180.407,157.189
0.490,35.625,5.713,5.694,215.364,180.430,157.127
0.492,35.772,5.741,5.727,215.501,180.461,157.082
0.493,35.919,5.770,5.764,215.640,180.503,157.058
0.494,36.070,5.805,5.803,215.781,180.556,157.056
0.496,36.224,5.845,5.846,215.921,180.618,157.071
0.497,36.380,5.891,5.892,216.059,180.686,157.102
0.499,36.536,5.940,5.938,216.191,180.757,157.144
0.500,36.689,5.989,5.984,216.316,180.829,157.196
0.501,36.836,6.035,6.028,216.431,180.900,157.253
0.503,36.972,6.076,6.068,216.534,180.966,157.314
0.504,37.095,6.108,6.103,216.622,181.026,157.373
0.506,37.199,6.128,6.132,216.694,181.076,157.430
0.507,37.281,6.137,6.153,216.747,181.114,157.480
0.508,37.338,6.136,6.167,216.780,181.137,157.521
0.510,37.374,6.127,6.175,216.794,181.147,157.552
0.511,37.395,6.112,6.177,216.795,181.146,157.573
0.513,37.412,6.094,6.173,216.790,181.138,157.587
0.514,37.427,6.075,6.164,216.784,181.126,157.593
0.515,37.441,6.057,6.150,216.783,181.112,157.593
0.517,37.458,6.041,6.132,216.792,181.099,157.588
0.518,37.486,6.030,6.111,216.817,181.092,157.578
0.519,37.535,6.023,6.091,216.864,181.092,157.564
0.521,37.612,6.021,6.074,216.939,181.103,157.548
0.522,37.725,6.024,6.060,217.048,181.128,157.531
0.524,37.878,6.035,6.053,217.194,181.169,157.513
0.525,38.067,6.052,6.054,217.373,181.225,157.494
0.526,38.283,6.077,6.065,217.578,181.292,157.475
0.528,38.519,6.108,6.086,217.801,181.368,157.457
0.529,38.768,6.142,6.114,218.035,181.449,157.439
0.531,39.021,6.178,6.148,218.273,181.534,157.423
0.532,39.271,6.212,6.185,218.508,181.619,157.408
0.533,39.510,6.244,6.224,218.732,181.701,157.394
0.535,39.730,6.270,6.263,218.938,181.777,157.383
0.536,39.923,6.288,6.301,219.119,181.844,157.375
0.538,40.082,6.299,6.335,219.267,181.900,157.369
0.539,40.201,6.303,6.365,219.378,181.943,157.366
0.540,40.285,6.303,6.390,219.457,181.974,157.365
0.542,40.338,6.299,6.409,219.505,181.993,157.367
0.543,40.364,6.294,6.422,219.529,182.003,157.370
0.545,40.368,6.289,6.427,219.531,182.004,157.374
0.546,40.385,6.285,6.424,219.516,181.998,157.379
0.547,40.416,6.283,6.414,219.488,181.987,157.384
0.549,40.457,6.284,6.397,219.451,181.970,157.388
0.550,40.503,6.286,6.378,219.409,181.950,157.391
0.552,40.552,6.291,6.357,219.366,181.928,157.393
0.553,40.598,6.297,6.338,219.326,181.905,157.393
0.554,40.639,6.305,6.323,219.292,181.883,157.392
0.556,40.672,6.315,6.313,219.265,181.864,157.388
0.557,40.698,6.327,6.312,219.245,181.848,157.384
0.558,40.712,6.338,6.317,219.235,181.839,157.380
0.560,40.717,6.350,6.327,219.235,181.837,157.375
0.561,40.732,6.359,6.342,219.247,181.845,157.371
0.563,40.763,6.367,6.358,219.271,181.864,157.369
0.564,40.813,6.371,6.376,219.310,181.897,157.368
0.565,40.884,6.370,6.394,219.363,181.944,157.369
0.567,40.979,6.365,6.409,219.432,182.009,157.372
0.568,41.098,6.355,6.423,219.518,182.091,157.379
