"T","Distance","Radius","FreeRadius","X","Y","Z"
0.000,0.000,2.085,2.085,-24.324,116.851,162.608
0.001,0.466,2.334,2.334,-24.069,117.233,162.689
0.003,0.928,2.579,2.579,-23.816,117.611,162.769
0.004,1.382,2.819,2.819,-23.568,117.983,162.847
0.005,1.824,3.050,3.050,-23.325,118.345,162.922
0.006,2.251,3.270,3.270,-23.090,118.694,162.995
0.008,2.658,3.474,3.474,-22.865,119.027,163.063
0.009,3.042,3.662,3.662,-22.652,119.340,163.126
0.010,3.398,3.829,3.829,-22.453,119.630,163.184
0.012,3.724,3.973,3.973,-22.270,119.893,163.236
0.013,4.014,4.098,4.098,-22.105,120.128,163.279
0.014,4.265,4.205,4.205,-21.960,120.329,163.315
0.015,4.473,4.297,4.297,-21.836,120.495,163.342
0.017,4.635,4.377,4.377,-21.736,120.622,163.360
0.018,4.755,4.446,4.446,-21.658,120.712,163.368
0.019,4.839,4.507,4.507,-21.598,120.771,163.369
0.021,4.892,4.563,4.563,-21.555,120.801,163.363
0.022,4.925,4.615,4.615,-21.524,120.808,163.352
0.023,4.954,4.664,4.664,-21.504,120.794,163.336
0.024,4.990,4.707,4.707,-21.491,120.766,163.318
0.026,5.036,4.745,4.745,-21.482,120.726,163.298
0.027,5.088,4.778,4.778,-21.474,120.679,163.276
0.028,5.143,4.804,4.804,-21.465,120.630,163.256
0.030,5.196,4.823,4.823,-21.451,120.581,163.237
0.031,5.247,4.834,4.834,-21.429,120.538,163.221
0.032,5.295,4.839,4.839,-21.398,120.505,163.209
0.033,5.343,4.838,4.838,-21.356,120.481,163.201
0.035,5.396,4.835,4.835,-21.305,120.467,163.197
0.036,5.453,4.831,4.831,-21.248,120.460,163.198
0.037,5.516,4.829,4.829,-21.186,120.458,163.203
0.039,5.582,4.829,4.829,-21.121,120.461,163.213
0.040,5.650,4.835,4.835,-21.055,120.467,163.226
0.041,5.719,4.849,4.849,-20.989,120.475,163.244
0.042,5.787,4.870,4.870,-20.925,120.483,163.267
0.044,5.853,4.895,4.895,-20.865,120.490,163.293
0.045,5.915,4.923,4.923,-20.811,120.494,163.324
0.046,5.973,4.950,4.950,-20.764,120.494,163.359
0.047,6.028,4.974,4.974,-20.727,120.488,163.398
0.049,6.081,4.993,4.993,-20.699,120.477,163.442
0.050,6.137,5.003,5.003,-20.678,120.462,163.492
0.051,6.197,5.004,5.004,-20.662,120.444,163.547
0.053,6.265,4.994,4.994,-20.649,120.424,163.610
0.054,6.339,4.975,4.975,-20.636,120.404,163.681
0.055,6.422,4.950,4.950,-20.623,120.385,163.760
0.056,6.514,4.919,4.919,-20.606,120.368,163.849
0.058,6.617,4.885,4.885,-20.583,120.356,163.949
0.059,6.732,4.848,4.848,-20.553,120.348,164.060
0.060,6.862,4.812,4.812,-20.513,120.347,164.183
0.062,7.008,4.776,4.776,-20.461,120.354,164.319
0.063,7.172,4.743,4.743,-20.395,120.370,164.469
0.064,7.356,4.712,4.712,-20.315,120.396,164.632
0.065,7.555,4.684,4.684,-20.224,120.429,164.806
0.067,7.765,4.659,4.659,-20.123,120.469,164.986
0.068,7.982,4.638,4.638,-20.017,120.513,165.170
0.069,8.202,4.621,4.621,-19.907,120.561,165.355
0.071,8.421,4.608,4.608,-19.796,120.609,165.537
0.072,8.633,4.600,4.600,-19.688,120.657,165.713
0.073,8.834,4.596,4.596,-19.585,120.703,165.880
0.074,9.021,4.595,4.595,-19.491,120.745,166.035
0.076,9.187,4.597,4.597,-19.407,120.782,166.174
0.077,9.330,4.601,4.601,-19.336,120.812,166.294
0.078,9.444,4.606,4.606,-19.282,120.832,166.393
0.080,9.527,4.611,4.611,-19.246,120.844,166.467
0.081,9.585,4.616,4.616,-19.225,120.847,166.521
0.082,9.623,4.620,4.620,-19.216,120.844,166.557
0.083,9.645,4.623,4.623,-19.215,120.837,166.579
0.085,9.660,4.624,4.624,-19.220,120.828,166.589
0.086,9.671,4.622,4.622,-19.226,120.818,166.592
0.087,9.681,4.618,4.618,-19.230,120.810,166.590
0.089,9.686,4.611,4.611,-19.230,120.806,166.587
0.090,9.695,4.601,4.601,-19.221,120.807,166.586
0.091,9.717,4.586,4.586,-19.201,120.816,166.590
0.092,9.759,4.568,4.568,-19.166,120.834,166.603
0.094,9.825,4.547,4.547,-19.113,120.863,166.628
0.095,9.918,4.525,4.525,-19.039,120.905,166.668
0.096,10.039,4.502,4.502,-18.945,120.960,166.721
0.098,10.182,4.481,4.481,-18.835,121.025,166.786
0.099,10.346,4.462,4.462,-18.710,121.099,166.861
0.100,10.527,4.446,4.446,-18.572,121.182,166.944
0.101,10.722,4.435,4.435,-18.424,121.271,167.033
0.103,10.927,4.430,4.430,-18.268,121.366,167.126
0.104,11.140,4.430,4.430,-18.106,121.466,167.222
0.105,11.357,4.435,4.435,-17.941,121.568,167.319
0.107,11.575,4.446,4.446,-17.775,121.672,167.415
0.108,11.791,4.462,4.462,-17.610,121.776,167.508
0.109,12.001,4.482,4.482,-17.449,121.879,167.596
0.110,12.204,4.507,4.507,-17.293,121.980,167.677
0.112,12.397,4.537,4.537,-17.144,122.078,167.752
0.113,12.580,4.570,4.570,-17.002,122.172,167.820
0.114,12.753,4.607,4.607,-16.869,122.262,167.881
0.116,12.913,4.645,4.645,-16.744,122.347,167.937
0.117,13.062,4.683,4.683,-16.629,122.427,167.986
0.118,13.198,4.720,4.720,-16.523,122.500,168.030
0.119,13.320,4.755,4.755,-16.428,122.566,168.068
0.121,13.427,4.787,4.787,-16.345,122.625,168.100
0.122,13.519,4.814,4.814,-16.273,122.676,168.128
0.123,13.595,4.836,4.836,-16.213,122.718,168.150
0.125,13.655,4.854,4.854,-16.167,122.751,168.168
0.126,13.697,4.867,4.868,-16.134,122.774,168.181
0.127,13.723,4.877,4.878,-16.114,122.787,168.191
0.128,13.736,4.884,4.884,-16.105,122.793,168.197
0.130,13.740,4.888,4.888,-16.103,122.794,168.201
0.131,13.747,4.889,4.889,-16.109,122.790,168.204
0.132,13.758,4.887,4.887,-16.118,122.785,168.207
0.134,13.771,4.885,4.884,-16.129,122.778,168.210
0.135,13.784,4.881,4.881,-16.140,122.774,168.214
0.136,13.796,4.878,4.877,-16.149,122.772,168.221
0.137,13.807,4.875,4.874,-16.154,122.774,168.231
0.139,13.824,4.874,4.873,-16.152,122.783,168.246
0.140,13.852,4.875,4.874,-16.141,122.801,168.265
0.141,13.895,4.879,4.879,-16.120,122.828,168.290
0.142,13.953,4.887,4.887,-16.088,122.865,168.320
0.144,14.024,4.899,4.900,-16.046,122.911,168.356
0.145,14.107,4.914,4.916,-15.996,122.963,168.395
0.146,14.197,4.933,4.935,-15.940,123.022,168.437
0.148,14.294,4.954,4.958,-15.880,123.084,168.481
0.149,14.395,4.979,4.982,-15.816,123.148,168.525
0.150,14.497,5.007,5.009,-15.751,123.213,168.568
0.151,14.597,5.037,5.037,-15.687,123.278,168.610
0.153,14.693,5.070,5.067,-15.624,123.340,168.649
0.154,14.783,5.104,5.098,-15.565,123.398,168.684
0.155,14.865,5.139,5.128,-15.511,123.451,168.714
0.157,14.935,5.172,5.158,-15.464,123.497,168.738
0.158,14.992,5.205,5.186,-15.425,123.535,168.756
0.159,15.038,5.234,5.212,-15.393,123.565,168.768
0.160,15.074,5.260,5.234,-15.368,123.589,168.776
0.162,15.101,5.282,5.253,-15.348,123.607,168.780
0.163,15.120,5.298,5.267,-15.334,123.620,168.780
0.164,15.132,5.309,5.277,-15.325,123.628,168.779
0.166,15.139,5.315,5.283,-15.319,123.632,168.777
0.167,15.142,5.317,5.286,-15.317,123.633,168.774
0.168,15.145,5.315,5.285,-15.318,123.631,168.772
0.169,15.151,5.310,5.282,-15.321,123.626,168.772
0.171,15.158,5.302,5.276,-15.326,123.621,168.774
0.172,15.168,5.291,5.267,-15.332,123.615,168.779
0.173,15.181,5.278,5.257,-15.338,123.608,168.788
0.175,15.196,5.264,5.245,-15.344,123.602,168.800
0.176,15.211,5.249,5.233,-15.350,123.596,168.814
0.177,15.226,5.234,5.221,-15.355,123.591,168.827
0.178,15.240,5.219,5.209,-15.359,123.588,168.840
0.180,15.251,5.205,5.199,-15.362,123.586,168.850
0.181,15.258,5.193,5.191,-15.363,123.587,168.857
0.182,15.261,5.183,5.185,-15.363,123.590,168.858
0.184,15.268,5.176,5.182,-15.360,123.595,168.854
0.185,15.284,5.173,5.182,-15.355,123.604,168.843
0.186,15.308,5.175,5.187,-15.347,123.616,168.823
0.187,15.344,5.183,5.196,-15.335,123.632,168.793
0.189,15.392,5.197,5.209,-15.320,123.652,168.753
0.190,15.449,5.219,5.228,-15.301,123.678,168.705
0.191,15.515,5.249,5.253,-15.277,123.710,168.652
0.193,15.589,5.289,5.284,-15.246,123.749,168.599
0.194,15.668,5.336,5.321,-15.208,123.798,168.549
0.195,15.754,5.386,5.359,-15.161,123.856,168.505
0.196,15.849,5.432,5.396,-15.106,123.925,168.471
0.198,15.955,5.471,5.429,-15.041,124.006,168.450
0.199,16.077,5.497,5.456,-14.965,124.100,168.446
0.200,16.217,5.504,5.473,-14.877,124.209,168.462
0.202,16.382,5.488,5.477,-14.776,124.333,168.503
0.203,16.576,5.444,5.467,-14.662,124.474,168.570
0.204,16.803,5.374,5.440,-14.533,124.633,168.669
0.205,17.059,5.285,5.401,-14.392,124.806,168.795
0.207,17.339,5.181,5.351,-14.243,124.990,168.945
0.208,17.636,5.071,5.292,-14.089,125.180,169.112
0.209,17.943,4.961,5.227,-13.933,125.374,169.293
0.211,18.253,4.856,5.158,-13.780,125.566,169.483
0.212,18.559,4.764,5.087,-13.633,125.752,169.675
0.213,18.854,4.690,5.016,-13.495,125.928,169.867
0.214,19.130,4.635,4.948,-13.371,126.091,170.051
0.216,19.380,4.597,4.883,-13.263,126.236,170.225
0.217,19.598,4.574,4.823,-13.175,126.359,170.382
0.218,19.777,4.564,4.770,-13.112,126.456,170.518
0.220,19.911,4.565,4.726,-13.075,126.523,170.628
0.221,20.003,4.575,4.691,-13.064,126.562,170.711
0.222,20.066,4.593,4.669,-13.073,126.579,170.771
0.223,20.110,4.615,4.659,-13.096,126.581,170.808
0.225,20.148,4.640,4.660,-13.128,126.574,170.827
0.226,20.184,4.665,4.668,-13.163,126.564,170.829
0.227,20.219,4.687,4.679,-13.195,126.557,170.817
0.228,20.252,4.704,4.691,-13.219,126.561,170.794
0.230,20.291,4.713,4.700,-13.229,126.580,170.762
0.231,20.349,4.711,4.703,-13.219,126.622,170.723
0.232,20.438,4.696,4.696,-13.184,126.692,170.681
0.234,20.570,4.666,4.677,-13.118,126.797,170.637
0.235,20.754,4.624,4.648,-13.015,126.944,170.595
0.236,20.992,4.574,4.611,-12.875,127.132,170.555
0.237,21.275,4.518,4.569,-12.704,127.355,170.519
0.239,21.595,4.462,4.525,-12.507,127.605,170.486
0.240,21.943,4.408,4.481,-12.290,127.875,170.457
0.241,22.310,4.361,4.439,-12.058,128.158,170.433
0.243,22.685,4.323,4.403,-11.819,128.447,170.413
0.244,23.061,4.298,4.374,-11.577,128.734,170.399
0.245,23.428,4.284,4.352,-11.338,129.013,170.390
0.246,23.776,4.280,4.338,-11.109,129.275,170.387
0.248,24.097,4.285,4.330,-10.894,129.514,170.390
0.249,24.381,4.297,4.328,-10.701,129.722,170.400
0.250,24.620,4.314,4.332,-10.534,129.892,170.417
0.252,24.810,4.336,4.342,-10.397,130.021,170.441
0.253,24.957,4.360,4.358,-10.287,130.113,170.473
0.254,25.069,4.386,4.378,-10.202,130.174,170.511
0.255,25.155,4.412,4.402,-10.138,130.210,170.557
0.257,25.227,4.438,4.427,-10.092,130.225,170.610
0.258,25.295,4.463,4.454,-10.062,130.226,170.671
0.259,25.365,4.487,4.479,-10.044,130.217,170.738
0.261,25.441,4.507,4.503,-10.036,130.204,170.813
0.262,25.523,4.524,4.523,-10.034,130.193,170.895
0.263,25.612,4.537,4.538,-10.036,130.188,170.983
0.264,25.708,4.545,4.547,-10.038,130.196,171.079
0.266,25.814,4.549,4.552,-10.038,130.222,171.182
0.267,25.934,4.550,4.553,-10.033,130.269,171.291
0.268,26.068,4.549,4.552,-10.023,130.336,171.406
0.270,26.215,4.547,4.548,-10.007,130.422,171.526
0.271,26.375,4.543,4.544,-9.986,130.522,171.648
0.272,26.545,4.539,4.539,-9.960,130.636,171.772
0.273,26.723,4.536,4.536,-9.927,130.760,171.896
0.275,26.908,4.534,4.533,-9.889,130.893,172.019
0.276,27.097,4.533,4.532,-9.846,131.031,172.139
0.277,27.287,4.534,4.533,-9.796,131.172,172.256
0.279,27.476,4.536,4.536,-9.741,131.315,172.368
0.280,27.663,4.541,4.541,-9.680,131.456,172.474
0.281,27.844,4.548,4.548,-9.612,131.593,172.572
0.282,28.019,4.557,4.557,-9.539,131.724,172.661
0.284,28.188,4.570,4.570,-9.460,131.850,172.742
0.285,28.354,4.585,4.585,-9.377,131.973,172.816
0.286,28.516,4.602,4.602,-9.291,132.093,172.883
0.288,28.677,4.621,4.621,-9.203,132.212,172.946
0.289,28.837,4.641,4.641,-9.114,132.332,173.004
0.290,28.997,4.662,4.661,-9.025,132.453,173.059
0.291,29.159,4.683,4.683,-8.937,132.578,173.111
0.293,29.323,4.704,4.704,-8.851,132.708,173.163
0.294,29.491,4.724,4.724,-8.768,132.844,173.214
0.295,29.663,4.744,4.745,-8.689,132.988,173.266
0.297,29.841,4.765,4.766,-8.615,133.141,173.320
0.298,30.027,4.787,4.789,-8.547,133.304,173.377
0.299,30.219,4.811,4.813,-8.485,133.477,173.436
0.300,30.416,4.838,4.839,-8.430,133.656,173.496
0.302,30.616,4.867,4.868,-8.379,133.839,173.558
0.303,30.817,4.901,4.901,-8.334,134.024,173.620
0.304,31.016,4.940,4.938,-8.293,134.209,173.682
0.306,31.210,4.982,4.978,-8.257,134.391,173.743
0.307,31.399,5.025,5.021,-8.225,134.567,173.801
0.308,31.578,5.070,5.064,-8.197,134.735,173.857
0.309,31.746,5.114,5.107,-8.171,134.893,173.910
0.311,31.901,5.156,5.150,-8.149,135.038,173.959
0.312,32.039,5.194,5.190,-8.129,135.167,174.002
0.313,32.159,5.227,5.228,-8.112,135.280,174.041
0.315,32.261,5.255,5.261,-8.096,135.374,174.073
0.316,32.346,5.277,5.291,-8.081,135.454,174.099
0.317,32.417,5.295,5.316,-8.066,135.520,174.120
0.318,32.476,5.308,5.338,-8.050,135.576,174.134
0.320,32.527,5.318,5.357,-8.032,135.623,174.143
0.321,32.572,5.326,5.372,-8.012,135.663,174.145
0.322,32.616,5.332,5.383,-7.989,135.700,174.141
0.323,32.661,5.337,5.392,-7.962,135.734,174.132
0.325,32.710,5.341,5.397,-7.929,135.768,174.116
0.326,32.768,5.345,5.401,-7.891,135.805,174.094
0.327,32.835,5.350,5.403,-7.847,135.846,174.066
0.329,32.914,5.356,5.406,-7.795,135.894,174.031
0.330,33.004,5.363,5.410,-7.735,135.950,173.991
0.331,33.105,5.372,5.416,-7.670,136.012,173.947
0.332,33.212,5.383,5.426,-7.600,136.079,173.899
0.334,33.326,5.396,5.439,-7.527,136.150,173.849
0.335,33.442,5.412,5.457,-7.453,136.223,173.798
0.336,33.560,5.430,5.478,-7.377,136.297,173.747
0.338,33.676,5.449,5.500,-7.303,136.372,173.698
0.339,33.788,5.469,5.523,-7.231,136.444,173.651
0.340,33.895,5.488,5.545,-7.162,136.515,173.609
0.341,33.994,5.506,5.564,-7.099,136.581,173.571
0.343,34.083,5.521,5.580,-7.042,136.642,173.540
0.344,34.160,5.535,5.590,-6.993,136.696,173.516
0.345,34.225,5.545,5.596,-6.952,136.743,173.501
0.347,34.278,5.553,5.597,-6.918,136.784,173.493
0.348,34.324,5.559,5.596,-6.889,136.820,173.494
0.349,34.366,5.563,5.594,-6.864,136.852,173.501
0.350,34.406,5.566,5.592,-6.841,136.882,173.515
0.352,34.447,5.567,5.591,-6.819,136.910,173.536
0.353,34.493,5.568,5.594,-6.795,136.938,173.563
0.354,34.543,5.569,5.601,-6.769,136.967,173.595
0.356,34.600,5.571,5.612,-6.740,136.998,173.632
0.357,34.665,5.573,5.627,-6.704,137.032,173.675
0.358,34.740,5.576,5.646,-6.661,137.071,173.722
0.359,34.825,5.580,5.666,-6.609,137.116,173.772
0.361,34.922,5.587,5.689,-6.547,137.166,173.827
0.362,35.028,5.597,5.712,-6.477,137.223,173.883
0.363,35.140,5.609,5.736,-6.401,137.283,173.940
0.365,35.257,5.625,5.759,-6.320,137.347,173.996
0.366,35.376,5.643,5.782,-6.237,137.412,174.049
0.367,35.493,5.663,5.802,-6.152,137.477,174.097
0.368,35.606,5.684,5.819,-6.069,137.542,174.140
0.370,35.714,5.703,5.832,-5.990,137.604,174.176
0.371,35.812,5.721,5.840,-5.915,137.663,174.203
0.372,35.900,5.736,5.843,-5.848,137.717,174.219
0.374,35.976,5.747,5.839,-5.789,137.765,174.223
0.375,36.039,5.753,5.828,-5.742,137.805,174.214
0.376,36.093,5.754,5.811,-5.706,137.838,174.190
0.377,36.142,5.751,5.791,-5.682,137.863,174.155
0.379,36.189,5.745,5.769,-5.667,137.881,174.115
0.380,36.233,5.738,5.748,-5.657,137.895,174.075
0.381,36.270,5.729,5.731,-5.651,137.905,174.039
0.383,36.297,5.721,5.718,-5.647,137.912,174.013
0.384,36.310,5.713,5.713,-5.642,137.918,174.003
0.385,36.325,5.707,5.717,-5.633,137.925,174.014
0.386,36.365,5.704,5.730,-5.618,137.933,174.050
0.388,36.437,5.705,5.752,-5.595,137.944,174.117
0.389,36.547,5.711,5.782,-5.562,137.959,174.221
0.390,36.701,5.724,5.820,-5.515,137.980,174.366
0.392,36.903,5.743,5.865,-5.453,138.007,174.557
0.393,37.151,5.771,5.916,-5.377,138.040,174.790
0.394,37.436,5.808,5.974,-5.290,138.079,175.058
0.395,37.748,5.855,6.036,-5.193,138.122,175.353
0.397,38.081,5.910,6.101,-5.090,138.167,175.665
0.398,38.424,5.970,6.168,-4.983,138.214,175.988
0.399,38.770,6.034,6.232,-4.875,138.261,176.313
0.401,39.110,6.099,6.294,-4.769,138.308,176.633
0.402,39.434,6.162,6.349,-4.667,138.352,176.938
0.403,39.736,6.221,6.396,-4.572,138.394,177.221
0.404,40.005,6.274,6.433,-4.486,138.431,177.473
0.406,40.234,6.320,6.459,-4.412,138.463,177.688
0.407,40.414,6.359,6.474,-4.353,138.488,177.856
0.408,40.545,6.391,6.482,-4.310,138.507,177.977
0.409,40.632,6.416,6.483,-4.279,138.519,178.058
0.411,40.681,6.435,6.479,-4.260,138.528,178.103
0.412,40.700,6.448,6.472,-4.252,138.532,178.120
0.413,40.707,6.456,6.463,-4.251,138.533,178.113
0.415,40.732,6.458,6.455,-4.258,138.532,178.089
0.416,40.769,6.457,6.448,-4.269,138.531,178.054
0.417,40.811,6.452,6.443,-4.284,138.529,178.014
0.418,40.854,6.446,6.440,-4.300,138.528,177.975
0.420,40.890,6.439,6.440,-4.316,138.529,177.943
0.421,40.914,6.434,6.442,-4.330,138.533,177.923
0.422,40.927,6.431,6.448,-4.341,138.540,177.923
0.424,40.952,6.432,6.457,-4.347,138.551,177.944
0.425,40.994,6.438,6.470,-4.350,138.566,177.983
0.426,41.053,6.450,6.487,-4.348,138.585,178.040
0.427,41.126,6.466,6.506,-4.343,138.605,178.109
0.429,41.210,6.486,6.528,-4.335,138.628,178.190
0.430,41.303,6.507,6.550,-4.323,138.651,178.279
0.431,41.402,6.530,6.573,-4.310,138.676,178.373
0.433,41.503,6.554,6.595,-4.294,138.701,178.471
0.434,41.605,6.576,6.615,-4.275,138.726,178.568
0.435,41.705,6.597,6.633,-4.256,138.750,178.663
0.436,41.800,6.616,6.649,-4.235,138.773,178.752
0.438,41.887,6.634,6.662,-4.212,138.794,178.834
0.439,41.965,6.650,6.674,-4.190,138.813,178.906
0.440,42.035,6.665,6.684,-4.166,138.829,178.970
0.442,42.098,6.680,6.693,-4.142,138.844,179.026
0.443,42.156,6.694,6.702,-4.118,138.855,179.077
0.444,42.210,6.709,6.710,-4.093,138.865,179.124
0.445,42.261,6.723,6.718,-4.068,138.873,179.169
0.447,42.311,6.738,6.727,-4.044,138.878,179.212
0.448,42.361,6.752,6.737,-4.019,138.881,179.255
0.449,42.412,6.766,6.747,-3.995,138.881,179.300
0.451,42.465,6.779,6.759,-3.972,138.880,179.348
0.452,42.523,6.790,6.772,-3.949,138.876,179.401
0.453,42.586,6.799,6.787,-3.927,138.870,179.459
0.454,42.655,6.805,6.804,-3.905,138.861,179.525
0.456,42.730,6.809,6.823,-3.885,138.851,179.596
0.457,42.809,6.810,6.844,-3.866,138.840,179.672
0.458,42.890,6.810,6.865,-3.848,138.828,179.750
0.460,42.972,6.809,6.886,-3.832,138.817,179.829
0.461,43.053,6.806,6.905,-3.818,138.805,179.908
0.462,43.131,6.804,6.921,-3.805,138.795,179.985
0.463,43.206,6.802,6.935,-3.795,138.786,180.059
0.465,43.275,6.801,6.943,-3.787,138.780,180.127
0.466,43.336,6.801,6.947,-3.781,138.776,180.188
0.467,43.389,6.803,6.947,-3.777,138.775,180.241
0.469,43.433,6.806,6.943,-3.777,138.778,180.284
0.470,43.465,6.810,6.938,-3.779,138.785,180.315
0.471,43.489,6.815,6.933,-3.784,138.795,180.337
0.472,43.508,6.821,6.928,-3.790,138.807,180.349
0.474,43.523,6.828,6.925,-3.796,138.820,180.354
0.475,43.537,6.835,6.925,-3.803,138.833,180.354
0.476,43.550,6.843,6.929,-3.809,138.843,180.349
0.478,43.561,6.849,6.936,-3.813,138.850,180.342
0.479,43.569,6.853,6.944,-3.814,138.852,180.334
0.480,43.578,6.853,6.952,-3.812,138.849,180.326
0.481,43.591,6.848,6.960,-3.806,138.838,180.320
0.483,43.614,6.837,6.966,-3.795,138.819,180.319
0.484,43.647,6.819,6.969,-3.778,138.790,180.322
0.485,43.695,6.792,6.967,-3.755,138.750,180.333
0.487,43.756,6.755,6.960,-3.724,138.701,180.351
0.488,43.831,6.709,6.947,-3.683,138.646,180.380
0.489,43.919,6.655,6.926,-3.631,138.587,180.421
0.490,44.022,6.593,6.895,-3.566,138.528,180.475
0.492,44.142,6.523,6.855,-3.486,138.472,180.545
0.493,44.280,6.446,6.804,-3.390,138.423,180.631
0.494,44.440,6.363,6.740,-3.276,138.382,180.736
0.496,44.625,6.274,6.663,-3.142,138.354,180.861
0.497,44.839,6.181,6.574,-2.987,138.342,181.007
0.498,45.085,6.086,6.476,-2.809,138.349,181.177
0.499,45.368,5.991,6.372,-2.606,138.377,181.372
0.501,45.692,5.901,6.267,-2.376,138.430,181.594
0.502,46.054,5.816,6.164,-2.123,138.508,181.840
0.503,46.446,5.741,6.067,-1.850,138.606,182.105
0.504,46.860,5.677,5.979,-1.565,138.721,182.382
0.506,47.287,5.628,5.904,-1.272,138.848,182.666
0.507,47.719,5.592,5.841,-0.979,138.984,182.951
0.508,48.145,5.567,5.790,-0.689,139.125,183.231
0.510,48.558,5.551,5.746,-0.410,139.267,183.500
0.511,48.948,5.540,5.709,-0.146,139.405,183.752
0.512,49.306,5.532,5.674,0.095,139.537,183.980
0.513,49.622,5.523,5.639,0.310,139.657,184.180
0.515,49.889,5.511,5.603,0.491,139.762,184.345
0.516,50.096,5.493,5.563,0.633,139.848,184.469
0.517,50.243,5.470,5.519,0.735,139.914,184.551
0.519,50.335,5.443,5.474,0.801,139.960,184.597
0.520,50.384,5.415,5.431,0.836,139.989,184.614
0.521,50.402,5.388,5.392,0.846,140.003,184.608
0.522,50.427,5.363,5.360,0.836,140.005,184.586
0.524,50.469,5.343,5.338,0.810,139.995,184.554
0.525,50.521,5.329,5.328,0.775,139.976,184.520
0.526,50.578,5.324,5.332,0.735,139.949,184.489
0.528,50.632,5.327,5.349,0.696,139.918,184.469
0.529,50.680,5.337,5.376,0.663,139.884,184.467
