"T","Distance","Radius","FreeRadius","X","Y","Z"
0.000,0.000,2.502,2.502,-24.466,117.613,163.879
0.001,0.367,2.694,2.694,-24.214,117.875,163.926
0.003,0.730,2.884,2.884,-23.964,118.135,163.971
0.004,1.087,3.069,3.069,-23.717,118.389,164.014
0.005,1.435,3.246,3.246,-23.475,118.636,164.054
0.006,1.771,3.413,3.413,-23.240,118.873,164.091
0.008,2.090,3.566,3.566,-23.014,119.097,164.122
0.009,2.392,3.703,3.703,-22.798,119.305,164.148
0.010,2.672,3.822,3.822,-22.594,119.496,164.167
0.012,2.927,3.922,3.922,-22.403,119.665,164.178
0.013,3.156,4.004,4.004,-22.227,119.812,164.181
0.014,3.355,4.073,4.073,-22.069,119.933,164.174
0.015,3.524,4.131,4.131,-21.929,120.026,164.157
0.017,3.664,4.182,4.182,-21.809,120.090,164.129
0.018,3.780,4.230,4.230,-21.706,120.130,164.092
0.019,3.879,4.277,4.277,-21.619,120.147,164.049
0.021,3.966,4.327,4.327,-21.546,120.146,164.000
0.022,4.047,4.381,4.381,-21.487,120.130,163.948
0.023,4.124,4.438,4.438,-21.439,120.102,163.894
0.024,4.199,4.495,4.495,-21.401,120.066,163.840
0.026,4.272,4.550,4.550,-21.372,120.025,163.788
0.027,4.340,4.600,4.600,-21.349,119.982,163.740
0.028,4.402,4.645,4.645,-21.332,119.941,163.697
0.030,4.455,4.680,4.680,-21.318,119.905,163.661
0.031,4.495,4.706,4.706,-21.307,119.877,163.634
0.032,4.524,4.720,4.720,-21.298,119.857,163.615
0.033,4.542,4.725,4.725,-21.291,119.844,163.604
0.035,4.552,4.722,4.722,-21.285,119.838,163.599
0.036,4.556,4.715,4.715,-21.281,119.838,163.599
0.037,4.563,4.705,4.705,-21.278,119.841,163.604
0.039,4.574,4.693,4.693,-21.277,119.848,163.612
0.040,4.587,4.683,4.683,-21.276,119.858,163.622
0.041,4.603,4.675,4.675,-21.277,119.868,163.633
0.042,4.619,4.671,4.671,-21.279,119.879,163.644
0.044,4.633,4.670,4.670,-21.282,119.890,163.655
0.045,4.646,4.671,4.671,-21.285,119.898,163.663
0.046,4.655,4.674,4.674,-21.289,119.904,163.669
0.048,4.662,4.678,4.678,-21.293,119.908,163.672
0.049,4.666,4.682,4.682,-21.297,119.910,163.673
0.050,4.669,4.687,4.687,-21.299,119.911,163.673
0.051,4.671,4.692,4.692,-21.301,119.911,163.671
0.053,4.674,4.696,4.696,-21.301,119.909,163.669
0.054,4.677,4.699,4.699,-21.300,119.908,163.667
0.055,4.682,4.702,4.702,-21.295,119.906,163.665
0.057,4.690,4.704,4.704,-21.288,119.904,163.664
0.058,4.701,4.706,4.706,-21.277,119.903,163.664
0.059,4.715,4.708,4.708,-21.262,119.902,163.665
0.060,4.735,4.709,4.709,-21.244,119.903,163.669
0.062,4.758,4.711,4.711,-21.221,119.905,163.674
0.063,4.786,4.712,4.712,-21.194,119.908,163.682
0.064,4.818,4.713,4.713,-21.164,119.912,163.692
0.066,4.854,4.713,4.713,-21.131,119.917,163.705
0.067,4.893,4.714,4.714,-21.095,119.923,163.720
0.068,4.935,4.714,4.714,-21.058,119.930,163.737
0.069,4.979,4.714,4.714,-21.019,119.937,163.757
0.071,5.026,4.714,4.714,-20.979,119.944,163.779
0.072,5.074,4.714,4.714,-20.938,119.951,163.804
0.073,5.124,4.714,4.714,-20.897,119.959,163.831
0.075,5.175,4.713,4.713,-20.856,119.967,163.861
0.076,5.227,4.714,4.714,-20.815,119.974,163.893
0.077,5.279,4.714,4.714,-20.776,119.981,163.926
0.078,5.329,4.716,4.716,-20.739,119.988,163.959
0.080,5.376,4.718,4.718,-20.703,119.994,163.989
0.081,5.418,4.721,4.721,-20.671,119.998,164.016
0.082,5.454,4.725,4.725,-20.642,120.002,164.036
0.084,5.483,4.730,4.730,-20.617,120.004,164.050
0.085,5.504,4.734,4.734,-20.596,120.004,164.055
0.086,5.520,4.737,4.737,-20.581,120.002,164.049
0.087,5.541,4.737,4.737,-20.571,119.999,164.031
0.089,5.574,4.734,4.734,-20.567,119.992,163.998
0.090,5.623,4.728,4.728,-20.570,119.984,163.951
0.091,5.686,4.717,4.717,-20.579,119.973,163.889
0.093,5.757,4.700,4.700,-20.591,119.961,163.820
0.094,5.830,4.679,4.679,-20.604,119.951,163.749
0.095,5.896,4.653,4.653,-20.613,119.943,163.684
0.096,5.949,4.623,4.623,-20.616,119.940,163.632
0.098,5.983,4.588,4.588,-20.611,119.942,163.598
0.099,6.004,4.550,4.550,-20.594,119.952,163.591
0.100,6.049,4.508,4.508,-20.562,119.972,163.615
0.102,6.135,4.463,4.463,-20.512,120.002,163.679
0.103,6.272,4.416,4.416,-20.442,120.044,163.789
0.104,6.469,4.367,4.367,-20.347,120.101,163.952
0.105,6.730,4.319,4.319,-20.227,120.174,164.172
0.107,7.052,4.272,4.272,-20.082,120.260,164.447
0.108,7.423,4.229,4.229,-19.919,120.358,164.764
0.109,7.829,4.191,4.191,-19.741,120.464,165.114
0.111,8.261,4.159,4.159,-19.553,120.576,165.486
0.112,8.705,4.134,4.134,-19.362,120.691,165.870
0.113,9.149,4.117,4.117,-19.170,120.806,166.254
0.114,9.582,4.107,4.107,-18.984,120.918,166.629
0.116,9.992,4.102,4.102,-18.809,121.024,166.984
0.117,10.367,4.102,4.102,-18.649,121.122,167.308
0.118,10.694,4.104,4.104,-18.509,121.209,167.591
0.120,10.963,4.108,4.108,-18.394,121.281,167.822
0.121,11.164,4.113,4.113,-18.307,121.337,167.995
0.122,11.305,4.118,4.118,-18.245,121.379,168.115
0.123,11.392,4.122,4.122,-18.206,121.408,168.187
0.125,11.435,4.126,4.126,-18.186,121.427,168.220
0.126,11.446,4.131,4.131,-18.181,121.436,168.220
0.127,11.473,4.137,4.137,-18.187,121.438,168.194
0.129,11.520,4.145,4.145,-18.202,121.436,168.149
0.130,11.582,4.155,4.155,-18.221,121.430,168.091
0.131,11.648,4.168,4.168,-18.242,121.423,168.028
0.132,11.713,4.183,4.183,-18.260,121.417,167.967
0.134,11.768,4.202,4.202,-18.273,121.413,167.914
0.135,11.806,4.221,4.221,-18.276,121.413,167.875
0.136,11.828,4.239,4.239,-18.269,121.419,167.855
0.138,11.850,4.256,4.256,-18.252,121.431,167.851
0.139,11.884,4.270,4.270,-18.224,121.448,167.861
0.140,11.934,4.280,4.280,-18.187,121.472,167.884
0.141,11.998,4.284,4.284,-18.140,121.501,167.917
0.143,12.078,4.281,4.281,-18.084,121.536,167.960
0.144,12.170,4.274,4.274,-18.019,121.578,168.010
0.145,12.274,4.263,4.263,-17.945,121.626,168.067
0.147,12.389,4.250,4.250,-17.863,121.680,168.127
0.148,12.514,4.238,4.238,-17.773,121.741,168.189
0.149,12.649,4.228,4.227,-17.676,121.809,168.252
0.150,12.791,4.221,4.221,-17.572,121.884,168.315
0.152,12.941,4.219,4.219,-17.461,121.964,168.375
0.153,13.095,4.225,4.225,-17.346,122.049,168.434
0.154,13.254,4.237,4.237,-17.228,122.137,168.491
0.156,13.414,4.254,4.255,-17.107,122.228,168.547
0.157,13.575,4.276,4.278,-16.986,122.319,168.600
0.158,13.734,4.303,4.305,-16.866,122.410,168.651
0.159,13.891,4.334,4.335,-16.748,122.500,168.700
0.161,14.042,4.368,4.369,-16.633,122.587,168.747
0.162,14.187,4.405,4.405,-16.523,122.671,168.790
0.163,14.323,4.443,4.442,-16.419,122.749,168.831
0.165,14.449,4.483,4.480,-16.323,122.821,168.870
0.166,14.565,4.522,4.518,-16.235,122.887,168.905
0.167,14.672,4.560,4.556,-16.153,122.948,168.937
0.168,14.772,4.597,4.593,-16.077,123.006,168.964
0.170,14.867,4.630,4.627,-16.004,123.063,168.988
0.171,14.960,4.660,4.659,-15.934,123.121,169.007
0.172,15.053,4.686,4.687,-15.865,123.181,169.021
0.174,15.148,4.707,4.712,-15.796,123.247,169.030
0.175,15.249,4.725,4.736,-15.725,123.318,169.033
0.176,15.358,4.744,4.760,-15.651,123.398,169.030
0.177,15.477,4.764,4.786,-15.573,123.488,169.020
0.179,15.611,4.789,4.816,-15.489,123.590,169.003
0.180,15.760,4.819,4.851,-15.397,123.706,168.979
0.181,15.924,4.858,4.893,-15.299,123.834,168.948
0.183,16.099,4.906,4.943,-15.196,123.971,168.911
0.184,16.282,4.964,5.001,-15.091,124.113,168.869
0.185,16.468,5.026,5.062,-14.984,124.258,168.823
0.186,16.653,5.090,5.123,-14.879,124.402,168.773
0.188,16.835,5.150,5.180,-14.776,124.542,168.721
0.189,17.008,5.203,5.229,-14.677,124.674,168.667
0.190,17.170,5.244,5.266,-14.585,124.796,168.612
0.192,17.317,5.271,5.288,-14.501,124.903,168.557
0.193,17.445,5.278,5.291,-14.427,124.992,168.503
0.194,17.551,5.268,5.276,-14.365,125.061,168.450
0.195,17.634,5.245,5.250,-14.317,125.107,168.400
0.197,17.698,5.214,5.216,-14.280,125.134,168.355
0.198,17.747,5.180,5.180,-14.255,125.145,168.316
0.199,17.782,5.148,5.146,-14.238,125.146,168.284
0.201,17.807,5.123,5.121,-14.230,125.140,168.262
0.202,17.820,5.108,5.108,-14.229,125.133,168.251
0.203,17.826,5.109,5.112,-14.232,125.128,168.252
0.204,17.844,5.125,5.132,-14.239,125.130,168.269
0.206,17.881,5.151,5.163,-14.249,125.144,168.301
0.207,17.940,5.184,5.203,-14.260,125.172,168.351
0.208,18.026,5.222,5.248,-14.270,125.221,168.421
0.210,18.143,5.261,5.294,-14.278,125.295,168.512
0.211,18.291,5.298,5.337,-14.284,125.393,168.624
0.212,18.465,5.328,5.375,-14.288,125.512,168.751
0.213,18.658,5.351,5.403,-14.291,125.647,168.889
0.215,18.865,5.365,5.423,-14.294,125.794,169.033
0.216,19.077,5.372,5.434,-14.296,125.948,169.179
0.217,19.291,5.373,5.438,-14.300,126.106,169.323
0.219,19.498,5.370,5.436,-14.304,126.262,169.459
0.220,19.694,5.363,5.428,-14.311,126.413,169.584
0.221,19.872,5.353,5.415,-14.320,126.554,169.692
0.222,20.026,5.342,5.398,-14.333,126.681,169.778
0.224,20.151,5.330,5.378,-14.349,126.789,169.839
0.225,20.244,5.317,5.356,-14.370,126.874,169.871
0.226,20.312,5.305,5.334,-14.393,126.938,169.877
0.228,20.365,5.294,5.312,-14.418,126.982,169.863
0.229,20.410,5.284,5.293,-14.441,127.010,169.835
0.230,20.452,5.274,5.277,-14.461,127.023,169.800
0.231,20.491,5.267,5.267,-14.476,127.024,169.764
0.233,20.524,5.261,5.262,-14.483,127.015,169.733
0.234,20.549,5.258,5.264,-14.481,127.000,169.714
0.235,20.573,5.254,5.269,-14.468,126.980,169.713
0.237,20.614,5.247,5.274,-14.441,126.958,169.735
0.238,20.685,5.237,5.276,-14.399,126.937,169.788
0.239,20.793,5.221,5.271,-14.340,126.919,169.877
0.240,20.944,5.196,5.257,-14.261,126.906,170.005
0.242,21.132,5.161,5.230,-14.166,126.900,170.167
0.243,21.351,5.114,5.187,-14.054,126.904,170.355
0.244,21.595,5.055,5.127,-13.927,126.919,170.562
0.246,21.858,4.986,5.055,-13.786,126.948,170.783
0.247,22.134,4.909,4.973,-13.633,126.993,171.009
0.248,22.420,4.826,4.885,-13.470,127.055,171.235
0.249,22.710,4.741,4.796,-13.296,127.137,171.453
0.251,23.003,4.654,4.709,-13.115,127.241,171.657
0.252,23.295,4.570,4.627,-12.926,127.369,171.839
0.253,23.587,4.489,4.553,-12.731,127.523,171.994
0.254,23.882,4.414,4.490,-12.532,127.704,172.114
0.256,24.184,4.344,4.436,-12.331,127.911,172.200
0.257,24.494,4.281,4.388,-12.128,128.139,172.256
0.258,24.812,4.224,4.347,-11.925,128.382,172.288
0.260,25.136,4.174,4.310,-11.724,128.636,172.301
0.261,25.461,4.131,4.276,-11.526,128.894,172.299
0.262,25.783,4.097,4.244,-11.334,129.152,172.288
0.263,26.097,4.070,4.212,-11.148,129.405,172.272
0.265,26.398,4.052,4.181,-10.971,129.647,172.257
0.266,26.680,4.043,4.154,-10.804,129.874,172.248
0.267,26.938,4.043,4.132,-10.648,130.080,172.250
0.269,27.167,4.052,4.117,-10.505,130.259,172.267
0.270,27.368,4.070,4.112,-10.377,130.409,172.304
0.271,27.544,4.098,4.118,-10.263,130.530,172.359
0.272,27.701,4.135,4.138,-10.161,130.628,172.430
0.274,27.846,4.183,4.173,-10.071,130.704,172.513
0.275,27.982,4.238,4.222,-9.992,130.764,172.607
0.276,28.113,4.298,4.280,-9.923,130.810,172.708
0.278,28.240,4.361,4.344,-9.862,130.845,172.814
0.279,28.364,4.425,4.410,-9.810,130.875,172.922
0.280,28.484,4.486,4.476,-9.764,130.901,173.030
0.281,28.599,4.542,4.537,-9.724,130.928,173.134
0.283,28.708,4.590,4.590,-9.689,130.959,173.232
0.284,28.810,4.629,4.632,-9.658,130.997,173.322
0.285,28.908,4.659,4.664,-9.630,131.045,173.402
0.287,29.001,4.681,4.686,-9.605,131.101,173.473
0.288,29.093,4.696,4.701,-9.583,131.164,173.536
0.289,29.183,4.705,4.709,-9.563,131.232,173.591
0.290,29.271,4.710,4.712,-9.544,131.304,173.639
0.292,29.359,4.710,4.711,-9.527,131.379,173.682
0.293,29.445,4.708,4.708,-9.512,131.455,173.719
0.294,29.529,4.703,4.703,-9.497,131.530,173.752
0.296,29.610,4.698,4.697,-9.483,131.604,173.782
0.297,29.687,4.692,4.690,-9.469,131.676,173.809
0.298,29.760,4.685,4.683,-9.456,131.743,173.835
0.299,29.828,4.678,4.677,-9.441,131.804,173.859
0.301,29.891,4.671,4.671,-9.426,131.861,173.882
0.302,29.952,4.665,4.665,-9.409,131.915,173.904
0.303,30.011,4.661,4.661,-9.390,131.967,173.925
0.305,30.071,4.658,4.658,-9.367,132.019,173.945
0.306,30.134,4.656,4.656,-9.339,132.073,173.963
0.307,30.202,4.656,4.656,-9.307,132.130,173.978
0.308,30.276,4.657,4.657,-9.269,132.192,173.992
0.310,30.359,4.659,4.659,-9.225,132.261,174.004
0.311,30.451,4.662,4.662,-9.173,132.337,174.013
0.312,30.557,4.666,4.666,-9.113,132.424,174.019
0.314,30.676,4.670,4.670,-9.044,132.521,174.023
0.315,30.811,4.676,4.676,-8.966,132.631,174.024
0.316,30.957,4.682,4.682,-8.881,132.750,174.022
0.317,31.113,4.689,4.689,-8.790,132.876,174.017
0.319,31.274,4.695,4.695,-8.696,133.007,174.010
0.320,31.438,4.702,4.702,-8.600,133.140,174.001
0.321,31.601,4.708,4.709,-8.505,133.272,173.990
0.323,31.761,4.715,4.715,-8.413,133.401,173.976
0.324,31.913,4.720,4.720,-8.325,133.524,173.961
0.325,32.055,4.726,4.725,-8.244,133.639,173.944
0.326,32.183,4.731,4.730,-8.171,133.743,173.926
0.328,32.295,4.735,4.734,-8.108,133.834,173.907
0.329,32.387,4.740,4.739,-8.057,133.908,173.886
0.330,32.460,4.745,4.744,-8.019,133.967,173.865
0.332,32.519,4.750,4.749,-7.990,134.014,173.844
0.333,32.567,4.755,4.755,-7.969,134.052,173.825
0.334,32.607,4.761,4.761,-7.954,134.085,173.807
0.335,32.643,4.767,4.769,-7.941,134.115,173.793
0.337,32.679,4.774,4.777,-7.930,134.148,173.782
0.338,32.718,4.782,4.786,-7.917,134.184,173.776
0.339,32.766,4.791,4.795,-7.901,134.229,173.775
0.341,32.827,4.801,4.805,-7.878,134.286,173.781
0.342,32.906,4.812,4.814,-7.848,134.357,173.794
0.343,33.006,4.824,4.824,-7.808,134.446,173.815
0.344,33.132,4.837,4.835,-7.755,134.556,173.845
0.346,33.279,4.851,4.845,-7.693,134.684,173.883
0.347,33.442,4.866,4.856,-7.623,134.825,173.926
0.348,33.616,4.881,4.868,-7.548,134.975,173.974
0.350,33.795,4.895,4.881,-7.472,135.130,174.023
0.351,33.975,4.909,4.896,-7.396,135.284,174.073
0.352,34.148,4.922,4.913,-7.324,135.434,174.123
0.353,34.311,4.933,4.932,-7.258,135.575,174.169
0.355,34.457,4.942,4.954,-7.201,135.703,174.210
0.356,34.581,4.950,4.978,-7.155,135.813,174.246
0.357,34.678,4.956,5.002,-7.124,135.901,174.273
0.359,34.744,4.962,5.025,-7.111,135.963,174.290
0.360,34.779,4.967,5.046,-7.114,135.997,174.298
0.361,34.799,4.972,5.064,-7.129,136.009,174.297
0.362,34.823,4.977,5.078,-7.152,136.005,174.291
0.364,34.854,4.983,5.086,-7.178,135.989,174.281
0.365,34.886,4.989,5.088,-7.200,135.969,174.270
0.366,34.913,4.996,5.085,-7.215,135.948,174.260
0.368,34.929,5.001,5.076,-7.217,135.934,174.253
0.369,34.945,5.006,5.064,-7.200,135.932,174.252
0.370,34.988,5.008,5.049,-7.161,135.947,174.259
0.371,35.067,5.008,5.032,-7.094,135.985,174.276
0.373,35.191,5.005,5.013,-6.994,136.051,174.306
0.374,35.366,4.997,4.995,-6.856,136.151,174.350
0.375,35.592,4.985,4.977,-6.683,136.283,174.409
0.377,35.860,4.971,4.961,-6.481,136.442,174.484
0.378,36.162,4.957,4.947,-6.255,136.622,174.573
0.379,36.491,4.944,4.937,-6.011,136.816,174.678
0.380,36.839,4.935,4.931,-5.756,137.021,174.797
0.382,37.199,4.932,4.930,-5.496,137.229,174.931
0.383,37.563,4.935,4.935,-5.235,137.436,175.080
0.384,37.924,4.948,4.948,-4.982,137.636,175.243
0.386,38.277,4.971,4.968,-4.741,137.823,175.420
0.387,38.616,5.002,4.995,-4.518,137.992,175.611
0.388,38.936,5.042,5.030,-4.320,138.138,175.817
0.389,39.237,5.088,5.073,-4.150,138.255,176.035
0.391,39.521,5.139,5.124,-4.008,138.347,176.263
0.392,39.791,5.194,5.182,-3.890,138.415,176.496
0.393,40.048,5.252,5.247,-3.794,138.463,176.730
0.395,40.294,5.312,5.320,-3.719,138.494,176.962
0.396,40.526,5.373,5.399,-3.660,138.510,177.186
0.397,40.744,5.433,5.480,-3.616,138.514,177.400
0.398,40.945,5.490,5.561,-3.585,138.510,177.598
0.400,41.126,5.543,5.639,-3.563,138.498,177.777
0.401,41.282,5.591,5.710,-3.549,138.484,177.932
0.402,41.411,5.631,5.771,-3.539,138.469,178.060
0.404,41.509,5.664,5.819,-3.532,138.456,178.156
0.405,41.576,5.686,5.852,-3.526,138.446,178.222
0.406,41.617,5.700,5.869,-3.520,138.442,178.263
0.407,41.638,5.706,5.874,-3.515,138.441,178.284
0.409,41.649,5.707,5.868,-3.510,138.447,178.291
0.410,41.661,5.704,5.856,-3.504,138.457,178.291
0.411,41.679,5.699,5.838,-3.498,138.475,178.289
0.413,41.704,5.694,5.818,-3.492,138.498,178.291
0.414,41.738,5.691,5.799,-3.484,138.529,178.303
0.415,41.787,5.691,5.783,-3.475,138.568,178.331
0.416,41.855,5.696,5.771,-3.464,138.615,178.380
0.418,41.950,5.706,5.765,-3.452,138.670,178.456
0.419,42.077,5.721,5.765,-3.437,138.734,178.564
0.420,42.233,5.742,5.773,-3.420,138.806,178.702
0.422,42.413,5.771,5.789,-3.402,138.884,178.863
0.423,42.612,5.807,5.815,-3.383,138.966,179.043
0.424,42.824,5.851,5.851,-3.364,139.050,179.237
0.425,43.044,5.903,5.899,-3.344,139.135,179.438
0.427,43.265,5.962,5.955,-3.325,139.219,179.642
0.428,43.483,6.025,6.017,-3.307,139.301,179.844
0.429,43.692,6.089,6.083,-3.290,139.378,180.037
0.431,43.886,6.152,6.148,-3.274,139.448,180.218
0.432,44.060,6.211,6.212,-3.262,139.511,180.379
0.433,44.208,6.265,6.270,-3.251,139.564,180.517
0.434,44.327,6.310,6.321,-3.244,139.607,180.627
0.436,44.419,6.346,6.361,-3.239,139.639,180.714
0.437,44.488,6.371,6.392,-3.236,139.664,180.778
0.438,44.536,6.389,6.414,-3.235,139.681,180.823
0.440,44.567,6.400,6.429,-3.235,139.691,180.852
0.441,44.582,6.405,6.437,-3.236,139.696,180.867
0.442,44.586,6.405,6.441,-3.238,139.696,180.870
0.443,44.592,6.403,6.440,-3.240,139.693,180.866
0.445,44.604,6.398,6.436,-3.241,139.688,180.855
0.446,44.619,6.393,6.431,-3.242,139.682,180.842
0.447,44.634,6.387,6.424,-3.241,139.675,180.828
0.449,44.648,6.380,6.416,-3.240,139.669,180.816
0.450,44.658,6.374,6.410,-3.236,139.665,180.807
0.451,44.665,6.369,6.404,-3.232,139.661,180.803
0.452,44.670,6.365,6.401,-3.228,139.659,180.801
0.454,44.674,6.362,6.401,-3.225,139.658,180.804
0.455,44.682,6.361,6.405,-3.222,139.659,180.811
0.456,44.693,6.361,6.413,-3.221,139.661,180.822
0.458,44.709,6.364,6.425,-3.222,139.664,180.837
0.459,44.729,6.367,6.442,-3.226,139.668,180.857
0.460,44.755,6.371,6.462,-3.233,139.674,180.882
0.461,44.788,6.376,6.487,-3.244,139.681,180.911
0.463,44.826,6.380,6.515,-3.259,139.689,180.946
0.464,44.872,6.385,6.547,-3.279,139.699,180.985
0.465,44.923,6.388,6.582,-3.302,139.710,181.030
0.467,44.980,6.390,6.619,-3.325,139.720,181.081
0.468,45.041,6.392,6.657,-3.347,139.731,181.137
0.469,45.106,6.393,6.691,-3.365,139.740,181.198
0.470,45.174,6.395,6.720,-3.377,139.749,181.265
0.472,45.248,6.397,6.741,-3.381,139.755,181.338
0.473,45.327,6.400,6.752,-3.375,139.758,181.417
0.474,45.414,6.403,6.750,-3.356,139.758,181.502
0.476,45.511,6.408,6.732,-3.323,139.755,181.593
0.477,45.620,6.413,6.700,-3.273,139.747,181.690
0.478,45.745,6.418,6.658,-3.204,139.735,181.793
0.479,45.886,6.420,6.607,-3.117,139.717,181.902
0.481,46.039,6.419,6.552,-3.014,139.695,182.015
0.482,46.202,6.412,6.496,-2.901,139.669,182.128
0.483,46.370,6.400,6.441,-2.779,139.639,182.241
0.485,46.540,6.379,6.392,-2.654,139.606,182.351
0.486,46.707,6.350,6.351,-2.529,139.570,182.456
0.487,46.868,6.313,6.318,-2.408,139.532,182.555
0.488,47.018,6.271,6.292,-2.294,139.493,182.644
0.490,47.154,6.227,6.272,-2.191,139.452,182.722
0.491,47.271,6.183,6.257,-2.103,139.410,182.786
0.492,47.366,6.142,6.246,-2.033,139.368,182.836
0.494,47.438,6.107,6.237,-1.985,139.326,182.868
0.495,47.491,6.079,6.230,-1.955,139.285,182.887
0.496,47.533,6.061,6.224,-1.940,139.247,182.895
0.497,47.567,6.051,6.218,-1.933,139.214,182.897
0.499,47.595,6.046,6.211,-1.930,139.186,182.899
0.500,47.616,6.044,6.202,-1.926,139.166,182.903
0.501,47.635,6.042,6.190,-1.916,139.154,182.914
0.503,47.666,6.037,6.176,-1.895,139.153,182.937
0.504,47.721,6.026,6.158,-1.857,139.163,182.975
0.505,47.808,6.007,6.135,-1.799,139.187,183.034
0.506,47.933,5.978,6.107,-1.713,139.225,183.118
0.508,48.103,5.940,6.075,-1.597,139.279,183.230
0.509,48.321,5.896,6.038,-1.448,139.349,183.372
0.510,48.580,5.849,5.999,-1.270,139.433,183.540
0.512,48.870,5.800,5.957,-1.070,139.528,183.728
0.513,49.184,5.751,5.913,-0.855,139.631,183.931
0.514,49.511,5.706,5.867,-0.629,139.739,184.143
0.515,49.845,5.666,5.821,-0.399,139.848,184.358
0.517,50.175,5.633,5.775,-0.172,139.957,184.571
0.518,50.493,5.606,5.730,0.048,140.061,184.777
0.519,50.791,5.586,5.687,0.253,140.158,184.969
0.521,51.060,5.570,5.647,0.439,140.246,185.143
0.522,51.291,5.558,5.611,0.598,140.320,185.293
0.523,51.475,5.550,5.580,0.725,140.379,185.413
0.524,51.614,5.545,5.556,0.820,140.421,185.504
0.526,51.713,5.543,5.538,0.887,140.449,185.572
0.527,51.780,5.542,5.528,0.931,140.464,185.620
0.528,51.823,5.543,5.524,0.955,140.468,185.656
0.530,51.852,5.545,5.525,0.963,140.462,185.684
