"T","Distance","Radius","FreeRadius","X","Y","Z"
0.000,0.000,2.309,2.309,312.309,333.162,324.964
0.001,0.257,2.402,2.402,312.224,333.149,324.721
0.003,0.514,2.495,2.495,312.139,333.137,324.480
0.004,0.767,2.588,2.588,312.053,333.128,324.241
0.006,1.017,2.680,2.680,311.967,333.122,324.007
0.007,1.262,2.772,2.772,311.879,333.122,323.778
0.009,1.501,2.864,2.864,311.790,333.127,323.556
0.010,1.733,2.954,2.954,311.700,333.141,323.343
0.012,1.958,3.044,3.044,311.608,333.162,323.139
0.013,2.175,3.133,3.133,311.514,333.194,322.946
0.015,2.384,3.222,3.222,311.417,333.236,322.766
0.016,2.585,3.312,3.312,311.318,333.292,322.600
0.017,2.779,3.402,3.402,311.217,333.360,322.448
0.019,2.969,3.494,3.494,311.113,333.441,322.313
0.020,3.154,3.586,3.586,311.007,333.534,322.192
0.022,3.335,3.680,3.680,310.902,333.635,322.084
0.023,3.513,3.774,3.774,310.798,333.743,321.990
0.025,3.686,3.864,3.864,310.695,333.855,321.907
0.026,3.854,3.948,3.948,310.596,333.971,321.835
0.028,4.015,4.025,4.025,310.502,334.087,321.774
0.029,4.170,4.093,4.093,310.412,334.201,321.723
0.031,4.315,4.148,4.148,310.329,334.312,321.679
0.032,4.449,4.190,4.190,310.254,334.417,321.644
0.034,4.571,4.221,4.221,310.187,334.515,321.615
0.035,4.679,4.245,4.245,310.130,334.604,321.593
0.036,4.775,4.263,4.263,310.080,334.685,321.576
0.038,4.862,4.278,4.278,310.036,334.758,321.562
0.039,4.942,4.293,4.293,309.996,334.827,321.553
0.041,5.015,4.311,4.311,309.959,334.890,321.546
0.042,5.086,4.334,4.334,309.924,334.951,321.540
0.044,5.155,4.360,4.360,309.887,335.009,321.536
0.045,5.224,4.390,4.390,309.849,335.066,321.531
0.047,5.296,4.422,4.422,309.806,335.124,321.525
0.048,5.372,4.456,4.456,309.758,335.183,321.518
0.050,5.456,4.493,4.493,309.702,335.244,321.508
0.051,5.549,4.530,4.530,309.638,335.310,321.494
0.052,5.651,4.568,4.568,309.564,335.379,321.477
0.054,5.761,4.607,4.607,309.484,335.451,321.458
0.055,5.877,4.648,4.648,309.397,335.526,321.437
0.057,5.999,4.691,4.691,309.304,335.602,321.416
0.058,6.124,4.737,4.737,309.208,335.679,321.394
0.060,6.252,4.786,4.786,309.108,335.756,321.373
0.061,6.381,4.838,4.838,309.007,335.832,321.353
0.063,6.509,4.894,4.894,308.905,335.908,321.336
0.064,6.635,4.952,4.952,308.803,335.981,321.322
0.066,6.758,5.013,5.013,308.703,336.052,321.312
0.067,6.877,5.075,5.075,308.606,336.120,321.307
0.069,6.990,5.138,5.138,308.512,336.184,321.307
0.070,7.098,5.201,5.201,308.423,336.244,321.310
0.071,7.199,5.264,5.264,308.339,336.301,321.315
0.073,7.294,5.326,5.326,308.261,336.355,321.320
0.074,7.381,5.382,5.382,308.190,336.405,321.324
0.076,7.461,5.432,5.432,308.127,336.453,321.326
0.077,7.532,5.473,5.473,308.072,336.498,321.324
0.079,7.595,5.502,5.502,308.026,336.541,321.315
0.080,7.651,5.516,5.516,307.990,336.581,321.300
0.082,7.702,5.513,5.513,307.965,336.619,321.276
0.083,7.754,5.496,5.496,307.952,336.655,321.242
0.085,7.811,5.468,5.468,307.950,336.689,321.196
0.086,7.877,5.434,5.434,307.960,336.724,321.141
0.087,7.952,5.400,5.400,307.980,336.761,321.079
0.089,8.035,5.369,5.369,308.008,336.804,321.013
0.090,8.125,5.347,5.347,308.043,336.853,320.946
0.092,8.221,5.339,5.339,308.083,336.912,320.882
0.093,8.324,5.343,5.343,308.127,336.983,320.822
0.095,8.435,5.355,5.355,308.174,337.068,320.770
0.096,8.554,5.370,5.370,308.222,337.170,320.728
0.098,8.687,5.386,5.386,308.269,337.291,320.700
0.099,8.837,5.396,5.396,308.314,337.433,320.689
0.101,9.008,5.396,5.396,308.357,337.599,320.696
0.102,9.204,5.384,5.384,308.395,337.789,320.724
0.103,9.421,5.360,5.360,308.428,337.999,320.767
0.105,9.656,5.328,5.328,308.457,338.226,320.823
0.106,9.907,5.294,5.294,308.482,338.467,320.887
0.108,10.169,5.261,5.261,308.503,338.719,320.958
0.109,10.439,5.235,5.235,308.518,338.977,321.030
0.111,10.711,5.220,5.220,308.529,339.240,321.101
0.112,10.983,5.219,5.219,308.536,339.504,321.166
0.114,11.250,5.231,5.231,308.537,339.765,321.223
0.115,11.509,5.254,5.254,308.534,340.020,321.268
0.117,11.756,5.282,5.282,308.526,340.266,321.297
0.118,11.991,5.313,5.313,308.513,340.499,321.308
0.120,12.213,5.342,5.342,308.495,340.720,321.302
0.121,12.423,5.367,5.367,308.475,340.929,321.280
0.122,12.623,5.384,5.384,308.451,341.125,321.245
0.124,12.814,5.392,5.392,308.425,341.308,321.199
0.125,12.995,5.394,5.394,308.397,341.478,321.144
0.127,13.167,5.389,5.389,308.369,341.636,321.081
0.128,13.329,5.381,5.381,308.341,341.780,321.014
0.130,13.481,5.369,5.369,308.314,341.913,320.943
0.131,13.623,5.355,5.355,308.288,342.032,320.872
0.133,13.753,5.341,5.341,308.265,342.139,320.802
0.134,13.870,5.326,5.326,308.244,342.233,320.735
0.136,13.976,5.313,5.313,308.226,342.316,320.671
0.137,14.074,5.301,5.301,308.209,342.390,320.610
0.138,14.166,5.292,5.292,308.193,342.459,320.552
0.140,14.256,5.286,5.286,308.175,342.526,320.494
0.141,14.346,5.284,5.284,308.155,342.593,320.437
0.143,14.440,5.287,5.287,308.132,342.663,320.379
0.144,14.540,5.295,5.295,308.105,342.740,320.320
0.146,14.651,5.308,5.308,308.072,342.825,320.259
0.147,14.774,5.326,5.326,308.031,342.923,320.194
0.149,14.915,5.348,5.348,307.983,343.035,320.126
0.150,15.075,5.375,5.375,307.925,343.165,320.052
0.152,15.257,5.407,5.407,307.857,343.315,319.974
0.153,15.457,5.442,5.442,307.781,343.480,319.891
0.155,15.672,5.482,5.482,307.698,343.658,319.804
0.156,15.896,5.525,5.525,307.610,343.845,319.715
0.157,16.127,5.569,5.569,307.518,344.037,319.625
0.159,16.360,5.615,5.615,307.425,344.229,319.533
0.160,16.591,5.662,5.662,307.331,344.419,319.442
0.162,16.815,5.709,5.709,307.239,344.602,319.352
0.163,17.028,5.755,5.755,307.151,344.775,319.264
0.165,17.226,5.799,5.799,307.068,344.934,319.179
0.166,17.406,5.841,5.841,306.991,345.075,319.097
0.168,17.563,5.881,5.881,306.923,345.194,319.021
0.169,17.699,5.916,5.916,306.862,345.292,318.950
0.171,17.815,5.948,5.948,306.809,345.372,318.883
0.172,17.916,5.974,5.974,306.762,345.434,318.820
0.173,18.004,5.995,5.995,306.719,345.483,318.761
0.175,18.082,6.011,6.011,306.680,345.521,318.705
0.176,18.153,6.023,6.023,306.643,345.549,318.651
0.178,18.219,6.031,6.031,306.608,345.571,318.600
0.179,18.283,6.037,6.037,306.572,345.589,318.551
0.181,18.346,6.040,6.040,306.534,345.606,318.502
0.182,18.410,6.042,6.042,306.495,345.623,318.455
0.184,18.477,6.043,6.043,306.451,345.644,318.408
0.185,18.549,6.044,6.044,306.403,345.670,318.361
0.187,18.625,6.045,6.045,306.352,345.700,318.315
0.188,18.703,6.048,6.048,306.298,345.735,318.269
0.190,18.785,6.053,6.052,306.242,345.773,318.223
0.191,18.868,6.060,6.060,306.186,345.814,318.178
0.192,18.952,6.072,6.072,306.129,345.857,318.135
0.194,19.035,6.087,6.087,306.073,345.902,318.092
0.195,19.118,6.104,6.105,306.019,345.949,318.050
0.197,19.199,6.123,6.124,305.967,345.997,318.010
0.198,19.277,6.143,6.143,305.919,346.044,317.972
0.200,19.351,6.162,6.162,305.875,346.092,317.935
0.201,19.421,6.179,6.179,305.837,346.138,317.900
0.203,19.486,6.193,6.193,305.803,346.184,317.867
0.204,19.547,6.204,6.203,305.774,346.228,317.837
0.206,19.602,6.211,6.210,305.750,346.269,317.809
0.207,19.653,6.216,6.214,305.731,346.309,317.785
0.208,19.698,6.219,6.217,305.715,346.345,317.763
0.210,19.738,6.220,6.218,305.704,346.378,317.744
0.211,19.772,6.219,6.218,305.696,346.408,317.729
0.213,19.800,6.216,6.217,305.692,346.434,317.718
0.214,19.823,6.213,6.217,305.691,346.455,317.711
0.216,19.840,6.209,6.216,305.694,346.472,317.709
0.217,19.853,6.205,6.215,305.699,346.484,317.710
0.219,19.865,6.201,6.215,305.706,346.491,317.716
0.220,19.877,6.198,6.214,305.715,346.493,317.725
0.222,19.891,6.196,6.213,305.724,346.493,317.735
0.223,19.905,6.195,6.212,305.732,346.490,317.746
0.224,19.917,6.196,6.211,305.740,346.486,317.755
0.226,19.926,6.198,6.211,305.744,346.481,317.762
0.227,19.931,6.200,6.211,305.746,346.477,317.764
0.229,19.936,6.204,6.211,305.743,346.474,317.762
0.230,19.948,6.207,6.212,305.734,346.474,317.753
0.232,19.971,6.211,6.214,305.720,346.477,317.736
0.233,20.006,6.215,6.216,305.698,346.485,317.710
0.235,20.054,6.219,6.219,305.669,346.497,317.673
0.236,20.114,6.224,6.223,305.633,346.513,317.628
0.238,20.184,6.228,6.228,305.591,346.533,317.576
0.239,20.260,6.233,6.234,305.546,346.555,317.519
0.241,20.341,6.238,6.240,305.498,346.579,317.458
0.242,20.423,6.244,6.246,305.450,346.603,317.397
0.243,20.504,6.250,6.253,305.401,346.626,317.336
0.245,20.581,6.257,6.260,305.355,346.648,317.278
0.246,20.653,6.265,6.268,305.312,346.668,317.224
0.248,20.715,6.273,6.275,305.274,346.685,317.177
0.249,20.766,6.281,6.283,305.243,346.697,317.139
0.251,20.804,6.289,6.290,305.219,346.704,317.110
0.252,20.828,6.297,6.297,305.203,346.706,317.093
0.254,20.841,6.304,6.304,305.194,346.704,317.084
0.255,20.846,6.310,6.310,305.190,346.701,317.082
0.257,20.851,6.314,6.316,305.189,346.698,317.086
0.258,20.860,6.316,6.320,305.192,346.696,317.094
0.259,20.870,6.314,6.322,305.195,346.697,317.104
0.261,20.883,6.308,6.322,305.199,346.702,317.114
0.262,20.898,6.298,6.319,305.201,346.714,317.123
0.264,20.918,6.282,6.313,305.201,346.733,317.130
0.265,20.947,6.261,6.305,305.197,346.762,317.132
0.267,20.988,6.235,6.292,305.187,346.801,317.128
0.268,21.042,6.205,6.277,305.171,346.852,317.116
0.270,21.111,6.171,6.257,305.149,346.915,317.098
0.271,21.193,6.133,6.234,305.121,346.987,317.073
0.273,21.288,6.092,6.206,305.086,347.070,317.041
0.274,21.394,6.048,6.174,305.046,347.160,317.005
0.276,21.510,6.002,6.138,305.001,347.259,316.963
0.277,21.635,5.955,6.098,304.950,347.364,316.917
0.278,21.769,5.906,6.055,304.894,347.474,316.867
0.280,21.909,5.856,6.010,304.834,347.590,316.813
0.281,22.057,5.807,5.962,304.768,347.709,316.757
0.283,22.209,5.758,5.913,304.699,347.831,316.699
0.284,22.366,5.710,5.862,304.625,347.955,316.639
0.286,22.526,5.663,5.810,304.547,348.081,316.577
0.287,22.688,5.617,5.760,304.467,348.209,316.517
0.289,22.853,5.572,5.710,304.384,348.339,316.457
0.290,23.020,5.528,5.662,304.300,348.471,316.401
0.292,23.187,5.485,5.617,304.216,348.606,316.348
0.293,23.356,5.443,5.577,304.132,348.743,316.299
0.294,23.524,5.402,5.540,304.049,348.883,316.257
0.296,23.692,5.362,5.506,303.968,349.026,316.221
0.297,23.860,5.322,5.472,303.889,349.173,316.194
0.299,24.028,5.283,5.437,303.814,349.322,316.176
0.300,24.197,5.245,5.398,303.744,349.475,316.168
0.302,24.367,5.206,5.353,303.677,349.631,316.171
0.303,24.537,5.168,5.300,303.616,349.789,316.182
0.305,24.706,5.130,5.239,303.560,349.948,316.200
0.306,24.874,5.092,5.175,303.508,350.107,316.221
0.308,25.040,5.054,5.112,303.460,350.264,316.244
0.309,25.201,5.016,5.057,303.418,350.417,316.266
0.310,25.357,4.979,5.015,303.380,350.567,316.285
0.312,25.505,4.943,4.992,303.346,350.711,316.299
0.313,25.646,4.908,4.993,303.317,350.848,316.306
0.315,25.777,4.874,5.020,303.292,350.977,316.302
0.316,25.900,4.841,5.065,303.272,351.097,316.286
0.318,26.014,4.812,5.118,303.255,351.206,316.256
0.319,26.124,4.785,5.172,303.243,351.306,316.212
0.321,26.232,4.763,5.216,303.233,351.398,316.156
0.322,26.341,4.746,5.242,303.225,351.485,316.090
0.324,26.452,4.734,5.241,303.218,351.566,316.015
0.325,26.566,4.728,5.209,303.211,351.646,315.934
0.327,26.683,4.725,5.152,303.203,351.725,315.848
0.328,26.804,4.725,5.078,303.193,351.805,315.758
0.329,26.927,4.723,4.992,303.181,351.888,315.668
0.331,27.054,4.720,4.902,303.165,351.976,315.577
0.332,27.185,4.713,4.816,303.145,352.071,315.489
0.334,27.320,4.699,4.740,303.119,352.174,315.405
0.335,27.461,4.679,4.679,303.088,352.286,315.326
0.337,27.606,4.655,4.632,303.052,352.405,315.253
0.338,27.754,4.631,4.599,303.011,352.531,315.186
0.340,27.904,4.609,4.579,302.965,352.661,315.125
0.341,28.056,4.593,4.572,302.916,352.794,315.071
0.343,28.208,4.585,4.577,302.862,352.929,315.025
0.344,28.360,4.588,4.594,302.806,353.064,314.986
0.345,28.509,4.603,4.620,302.747,353.197,314.956
0.347,28.655,4.627,4.654,302.686,353.328,314.934
0.348,28.796,4.657,4.692,302.622,353.454,314.921
0.350,28.933,4.688,4.731,302.558,353.574,314.918
0.351,29.064,4.719,4.769,302.492,353.687,314.924
0.353,29.190,4.745,4.801,302.426,353.794,314.939
0.354,29.312,4.765,4.825,302.359,353.893,314.961
0.356,29.429,4.776,4.841,302.293,353.986,314.988
0.357,29.543,4.781,4.851,302.227,354.074,315.019
0.359,29.653,4.781,4.856,302.162,354.156,315.052
0.360,29.759,4.778,4.858,302.098,354.233,315.086
0.362,29.860,4.775,4.860,302.035,354.306,315.118
0.363,29.957,4.772,4.864,301.975,354.374,315.149
0.364,30.048,4.772,4.871,301.917,354.440,315.175
0.366,30.133,4.775,4.882,301.861,354.501,315.196
0.367,30.214,4.779,4.896,301.809,354.561,315.210
0.369,30.290,4.786,4.911,301.759,354.618,315.216
0.370,30.363,4.793,4.927,301.711,354.674,315.215
0.372,30.436,4.801,4.942,301.666,354.730,315.207
0.373,30.509,4.808,4.956,301.621,354.786,315.195
0.375,30.584,4.814,4.966,301.576,354.844,315.177
0.376,30.663,4.820,4.975,301.531,354.904,315.155
0.378,30.746,4.825,4.982,301.485,354.968,315.129
0.379,30.833,4.832,4.989,301.437,355.036,315.101
0.380,30.927,4.841,4.999,301.386,355.109,315.070
0.382,31.028,4.853,5.011,301.333,355.188,315.038
0.383,31.136,4.869,5.028,301.276,355.273,315.005
0.385,31.252,4.891,5.050,301.215,355.366,314.972
0.386,31.374,4.917,5.078,301.151,355.465,314.939
0.388,31.501,4.946,5.108,301.084,355.568,314.907
0.389,31.630,4.978,5.138,301.015,355.674,314.877
0.391,31.760,5.011,5.168,300.947,355.779,314.848
0.392,31.887,5.043,5.193,300.878,355.883,314.822
0.394,32.010,5.075,5.213,300.811,355.984,314.799
0.395,32.127,5.104,5.225,300.747,356.080,314.780
0.397,32.236,5.130,5.231,300.686,356.169,314.765
0.398,32.335,5.153,5.231,300.629,356.249,314.754
0.399,32.422,5.173,5.228,300.577,356.319,314.748
0.401,32.495,5.190,5.223,300.532,356.376,314.748
0.402,32.556,5.204,5.218,300.492,356.421,314.753
0.404,32.606,5.214,5.216,300.458,356.457,314.764
0.405,32.649,5.222,5.217,300.428,356.483,314.779
0.407,32.687,5.226,5.222,300.402,356.503,314.799
0.408,32.723,5.228,5.229,300.378,356.518,314.822
0.410,32.760,5.228,5.238,300.356,356.530,314.849
0.411,32.797,5.226,5.248,300.335,356.541,314.878
0.413,32.837,5.222,5.257,300.315,356.552,314.910
0.414,32.879,5.217,5.265,300.294,356.565,314.944
0.415,32.924,5.212,5.271,300.271,356.582,314.979
0.417,32.974,5.206,5.276,300.246,356.605,315.015
0.418,33.029,5.199,5.278,300.218,356.635,315.052
0.420,33.090,5.193,5.279,300.187,356.671,315.090
0.421,33.154,5.188,5.278,300.155,356.713,315.128
0.423,33.223,5.183,5.275,300.121,356.758,315.167
0.424,33.295,5.179,5.272,300.087,356.807,315.207
0.426,33.369,5.176,5.267,300.051,356.859,315.247
0.427,33.445,5.175,5.262,300.016,356.912,315.287
0.429,33.521,5.174,5.256,299.981,356.965,315.329
0.430,33.596,5.175,5.251,299.948,357.018,315.370
0.431,33.670,5.176,5.247,299.916,357.070,315.412
0.433,33.743,5.178,5.244,299.886,357.120,315.455
0.434,33.812,5.181,5.242,299.858,357.167,315.498
0.436,33.880,5.184,5.243,299.832,357.212,315.542
0.437,33.949,5.187,5.245,299.807,357.257,315.588
0.439,34.020,5.190,5.248,299.780,357.303,315.635
0.440,34.097,5.192,5.252,299.752,357.354,315.685
0.442,34.180,5.194,5.256,299.720,357.410,315.738
0.443,34.273,5.196,5.259,299.684,357.474,315.794
0.445,34.377,5.196,5.262,299.641,357.548,315.855
0.446,34.496,5.195,5.264,299.592,357.633,315.921
0.448,34.630,5.195,5.266,299.534,357.731,315.992
0.449,34.783,5.198,5.271,299.466,357.845,316.069
0.450,34.958,5.206,5.281,299.388,357.976,316.152
0.452,35.153,5.221,5.297,299.298,358.124,316.242
0.453,35.364,5.244,5.322,299.200,358.286,316.336
0.455,35.586,5.279,5.357,299.095,358.457,316.433
0.456,35.815,5.324,5.403,298.987,358.633,316.531
0.458,36.045,5.377,5.456,298.877,358.810,316.628
0.459,36.272,5.435,5.513,298.768,358.985,316.722
0.461,36.489,5.493,5.569,298.663,359.153,316.812
0.462,36.693,5.549,5.622,298.563,359.309,316.896
0.464,36.878,5.599,5.666,298.472,359.451,316.972
0.465,37.038,5.639,5.699,298.392,359.574,317.038
0.466,37.170,5.667,5.719,298.325,359.673,317.093
0.468,37.269,5.686,5.728,298.273,359.747,317.135
0.469,37.338,5.697,5.728,298.236,359.796,317.164
0.471,37.381,5.701,5.723,298.211,359.825,317.184
0.472,37.402,5.703,5.716,298.197,359.837,317.195
0.474,37.408,5.703,5.708,298.193,359.838,317.198
0.475,37.417,5.703,5.704,298.195,359.830,317.197
0.477,37.432,5.705,5.704,298.203,359.817,317.191
0.478,37.451,5.708,5.707,298.215,359.805,317.184
0.480,37.469,5.713,5.714,298.228,359.796,317.176
0.481,37.484,5.719,5.723,298.242,359.795,317.170
0.483,37.500,5.725,5.732,298.254,359.805,317.167
0.484,37.527,5.733,5.743,298.262,359.831,317.169
0.485,37.570,5.740,5.752,298.266,359.873,317.176
0.487,37.626,5.748,5.761,298.266,359.928,317.188
0.488,37.693,5.755,5.769,298.263,359.993,317.204
0.490,37.767,5.763,5.776,298.257,360.063,317.225
0.491,37.844,5.771,5.783,298.247,360.136,317.249
0.493,37.923,5.779,5.790,298.235,360.209,317.276
0.494,37.998,5.788,5.796,298.222,360.276,317.307
0.496,38.068,5.796,5.802,298.206,360.337,317.339
0.497,38.130,5.804,5.808,298.190,360.386,317.373
0.499,38.183,5.812,5.815,298.172,360.420,317.408
0.500,38.226,5.820,5.821,298.154,360.436,317.445
0.501,38.267,5.828,5.828,298.136,360.433,317.481
0.503,38.308,5.836,5.835,298.118,360.415,317.514
0.504,38.349,5.842,5.842,298.101,360.391,317.542
0.506,38.382,5.848,5.849,298.085,360.369,317.561
0.507,38.403,5.852,5.854,298.071,360.355,317.567
0.509,38.419,5.848,5.853,298.058,360.358,317.559
0.510,38.458,5.834,5.841,298.047,360.385,317.532
0.512,38.534,5.806,5.813,298.039,360.444,317.484
0.513,38.656,5.760,5.766,298.034,360.542,317.412
0.515,38.832,5.691,5.694,298.033,360.687,317.312
0.516,39.071,5.597,5.593,298.035,360.887,317.182
0.517,39.379,5.481,5.469,298.041,361.148,317.018
0.519,39.755,5.351,5.331,298.052,361.468,316.823
0.520,40.183,5.216,5.190,298.066,361.836,316.603
0.522,40.653,5.084,5.057,298.083,362.240,316.363
0.523,41.151,4.963,4.941,298.104,362.668,316.110
0.525,41.663,4.862,4.855,298.127,363.109,315.850
0.526,42.177,4.788,4.807,298.152,363.551,315.590
0.528,42.680,4.742,4.795,298.179,363.983,315.334
0.529,43.158,4.718,4.811,298.208,364.393,315.090
0.531,43.599,4.712,4.847,298.238,364.770,314.863
0.532,43.990,4.717,4.893,298.269,365.102,314.660
0.534,44.317,4.729,4.940,298.300,365.378,314.486
0.535,44.574,4.742,4.979,298.332,365.591,314.346
0.536,44.766,4.752,5.004,298.364,365.747,314.238
0.538,44.904,4.756,5.012,298.396,365.854,314.157
0.539,44.997,4.757,5.007,298.429,365.920,314.101
0.541,45.057,4.754,4.992,298.464,365.955,314.066
0.542,45.097,4.747,4.970,298.499,365.965,314.050
0.544,45.134,4.737,4.944,298.536,365.959,314.049
0.545,45.176,4.725,4.917,298.574,365.947,314.059
0.547,45.221,4.711,4.892,298.614,365.934,314.077
0.548,45.270,4.695,4.870,298.656,365.931,314.100
0.550,45.322,4.678,4.850,298.700,365.945,314.125
0.551,45.387,4.661,4.832,298.746,365.984,314.149
0.552,45.471,4.645,4.814,298.794,366.049,314.170
0.554,45.573,4.630,4.797,298.844,366.137,314.190
0.555,45.693,4.617,4.780,298.893,366.244,314.208
0.557,45.827,4.606,4.763,298.942,366.368,314.225
0.558,45.973,4.597,4.747,298.989,366.505,314.241
0.560,46.129,4.590,4.733,299.034,366.653,314.257
0.561,46.290,4.584,4.723,299.076,366.809,314.273
0.563,46.455,4.579,4.719,299.115,366.968,314.289
0.564,46.621,4.574,4.720,299.148,367.129,314.307
0.566,46.783,4.568,4.730,299.176,367.288,314.325
0.567,46.940,4.561,4.749,299.198,367.443,314.345
0.569,47.090,4.554,4.775,299.214,367.589,314.368
0.570,47.229,4.546,4.803,299.224,367.726,314.393
0.571,47.357,4.538,4.832,299.230,367.851,314.421
0.573,47.473,4.530,4.857,299.232,367.963,314.452
0.574,47.575,4.522,4.876,299.233,368.058,314.488
0.576,47.663,4.515,4.885,299.234,368.136,314.528
0.577,47.736,4.509,4.882,299.235,368.194,314.574
0.579,47.799,4.503,4.864,299.238,368.230,314.624
0.580,47.857,4.496,4.832,299.244,368.242,314.681
0.582,47.923,4.490,4.783,299.254,368.228,314.745
0.583,48.007,4.482,4.718,299.270,368.186,314.816
0.585,48.114,4.473,4.634,299.292,368.115,314.894
0.586,48.240,4.462,4.531,299.319,368.024,314.976
0.587,48.371,4.449,4.412,299.347,367.925,315.057
0.589,48.497,4.431,4.291,299.374,367.830,315.135
0.590,48.605,4.406,4.184,299.397,367.751,315.205
0.592,48.683,4.372,4.109,299.414,367.700,315.261
0.593,48.725,4.326,4.080,299.421,367.690,315.301
