"T","Distance","Radius","FreeRadius","X","Y","Z"
0.000,0.000,2.252,2.252,274.288,253.376,229.559
0.002,0.055,2.275,2.275,274.288,253.375,229.614
0.004,0.112,2.299,2.299,274.290,253.373,229.671
0.005,0.170,2.323,2.323,274.295,253.369,229.729
0.007,0.232,2.347,2.347,274.303,253.365,229.790
0.009,0.299,2.372,2.372,274.317,253.357,229.855
0.011,0.373,2.397,2.397,274.338,253.347,229.925
0.012,0.455,2.424,2.424,274.367,253.334,230.001
0.014,0.548,2.455,2.455,274.406,253.316,230.083
0.016,0.653,2.492,2.492,274.456,253.294,230.173
0.018,0.773,2.537,2.537,274.517,253.266,230.272
0.020,0.909,2.593,2.593,274.593,253.233,230.381
0.021,1.064,2.661,2.661,274.683,253.193,230.500
0.023,1.235,2.741,2.741,274.787,253.148,230.628
0.025,1.417,2.831,2.831,274.900,253.099,230.762
0.027,1.607,2.930,2.930,275.020,253.047,230.899
0.028,1.800,3.035,3.035,275.144,252.993,231.038
0.030,1.992,3.145,3.145,275.269,252.939,231.174
0.032,2.180,3.257,3.257,275.391,252.887,231.306
0.034,2.357,3.367,3.367,275.507,252.837,231.430
0.036,2.521,3.473,3.473,275.615,252.791,231.545
0.037,2.667,3.569,3.569,275.711,252.750,231.647
0.039,2.790,3.653,3.653,275.792,252.716,231.733
0.041,2.887,3.720,3.720,275.856,252.689,231.801
0.043,2.957,3.768,3.768,275.901,252.671,231.852
0.044,3.004,3.799,3.799,275.930,252.660,231.885
0.046,3.029,3.817,3.817,275.946,252.654,231.905
0.048,3.038,3.822,3.822,275.950,252.653,231.912
0.050,3.044,3.817,3.817,275.946,252.656,231.910
0.052,3.061,3.805,3.805,275.934,252.662,231.899
0.053,3.086,3.788,3.788,275.918,252.670,231.882
0.055,3.115,3.768,3.768,275.899,252.678,231.861
0.057,3.145,3.747,3.747,275.881,252.685,231.838
0.059,3.174,3.727,3.727,275.865,252.691,231.815
0.060,3.198,3.711,3.711,275.854,252.694,231.794
0.062,3.217,3.700,3.700,275.848,252.695,231.776
0.064,3.231,3.694,3.694,275.847,252.693,231.762
0.066,3.242,3.692,3.692,275.850,252.689,231.752
0.068,3.252,3.693,3.693,275.855,252.684,231.745
0.069,3.260,3.696,3.696,275.861,252.679,231.742
0.071,3.267,3.702,3.702,275.867,252.675,231.743
0.073,3.275,3.708,3.708,275.872,252.672,231.748
0.075,3.284,3.714,3.714,275.874,252.672,231.757
0.077,3.297,3.719,3.719,275.872,252.674,231.769
0.078,3.316,3.722,3.722,275.865,252.679,231.786
0.080,3.343,3.723,3.723,275.852,252.689,231.807
0.082,3.378,3.720,3.720,275.833,252.704,231.833
0.084,3.419,3.716,3.716,275.808,252.722,231.861
0.085,3.465,3.712,3.712,275.781,252.740,231.893
0.087,3.513,3.713,3.713,275.753,252.757,231.928
0.089,3.560,3.721,3.721,275.727,252.771,231.964
0.091,3.604,3.739,3.739,275.705,252.780,232.002
0.093,3.646,3.768,3.768,275.689,252.781,232.040
0.094,3.687,3.807,3.807,275.681,252.773,232.079
0.096,3.730,3.849,3.849,275.684,252.753,232.118
0.098,3.783,3.890,3.890,275.700,252.719,232.155
0.100,3.852,3.925,3.925,275.731,252.670,232.192
0.101,3.941,3.948,3.948,275.779,252.604,232.226
0.103,4.050,3.959,3.959,275.843,252.521,232.258
0.105,4.175,3.961,3.961,275.920,252.426,232.287
0.107,4.314,3.960,3.960,276.006,252.321,232.314
0.109,4.462,3.962,3.962,276.100,252.209,232.337
0.110,4.615,3.971,3.971,276.198,252.093,232.357
0.112,4.769,3.993,3.993,276.297,251.976,232.373
0.114,4.920,4.027,4.027,276.395,251.862,232.385
0.116,5.065,4.070,4.070,276.489,251.752,232.393
0.117,5.199,4.117,4.117,276.576,251.650,232.397
0.119,5.318,4.164,4.164,276.653,251.559,232.395
0.121,5.418,4.205,4.205,276.717,251.482,232.389
0.123,5.500,4.238,4.238,276.769,251.420,232.379
0.125,5.565,4.263,4.263,276.809,251.371,232.366
0.126,5.614,4.280,4.280,276.838,251.333,232.352
0.128,5.651,4.292,4.292,276.859,251.306,232.340
0.130,5.675,4.299,4.299,276.872,251.288,232.331
0.132,5.689,4.304,4.304,276.880,251.277,232.326
0.133,5.695,4.306,4.306,276.884,251.273,232.328
0.135,5.705,4.305,4.305,276.884,251.274,232.339
0.137,5.726,4.299,4.299,276.883,251.278,232.359
0.139,5.759,4.288,4.288,276.882,251.284,232.391
0.141,5.806,4.269,4.269,276.882,251.292,232.438
0.142,5.866,4.241,4.241,276.886,251.299,232.497
0.144,5.936,4.207,4.207,276.897,251.305,232.566
0.146,6.014,4.172,4.172,276.916,251.309,232.641
0.148,6.097,4.141,4.141,276.948,251.310,232.718
0.149,6.186,4.119,4.119,276.996,251.307,232.793
0.151,6.282,4.112,4.112,277.062,251.301,232.863
0.153,6.388,4.124,4.124,277.149,251.289,232.923
0.155,6.510,4.150,4.150,277.260,251.271,232.969
0.157,6.653,4.182,4.182,277.398,251.246,232.997
0.158,6.825,4.214,4.214,277.567,251.214,233.005
0.160,7.032,4.238,4.238,277.769,251.173,232.987
0.162,7.278,4.245,4.245,278.006,251.124,232.942
0.164,7.557,4.233,4.233,278.270,251.067,232.873
0.165,7.863,4.207,4.207,278.556,251.003,232.787
0.167,8.186,4.174,4.174,278.857,250.935,232.687
0.169,8.520,4.142,4.142,279.164,250.863,232.580
0.171,8.855,4.116,4.116,279.472,250.788,232.471
0.173,9.183,4.106,4.106,279.773,250.713,232.364
0.174,9.497,4.109,4.109,280.061,250.637,232.265
0.176,9.786,4.122,4.122,280.327,250.563,232.179
0.178,10.044,4.136,4.136,280.566,250.492,232.111
0.180,10.263,4.146,4.146,280.769,250.426,232.066
0.181,10.438,4.145,4.145,280.932,250.364,232.049
0.183,10.574,4.127,4.127,281.056,250.308,232.059
0.185,10.681,4.098,4.098,281.145,250.258,232.091
0.187,10.771,4.066,4.066,281.204,250.214,232.142
0.189,10.856,4.038,4.038,281.238,250.174,232.208
0.190,10.942,4.022,4.022,281.252,250.140,232.287
0.192,11.034,4.028,4.028,281.249,250.112,232.374
0.194,11.129,4.059,4.059,281.235,250.089,232.465
0.196,11.225,4.108,4.108,281.214,250.071,232.557
0.198,11.319,4.167,4.167,281.191,250.058,232.647
0.199,11.405,4.227,4.227,281.171,250.050,232.731
0.201,11.481,4.281,4.281,281.157,250.047,232.805
0.203,11.545,4.319,4.319,281.154,250.047,232.869
0.205,11.603,4.340,4.340,281.160,250.049,232.926
0.206,11.658,4.347,4.347,281.178,250.051,232.979
0.208,11.716,4.343,4.343,281.207,250.049,233.029
0.210,11.783,4.334,4.334,281.250,250.042,233.079
0.212,11.861,4.321,4.321,281.306,250.028,233.132
0.214,11.956,4.310,4.310,281.376,250.005,233.191
0.215,12.069,4.300,4.300,281.462,249.969,233.257
0.217,12.206,4.293,4.293,281.564,249.920,233.333
0.219,12.368,4.286,4.286,281.683,249.854,233.422
0.221,12.559,4.280,4.280,281.820,249.771,233.526
0.222,12.779,4.274,4.274,281.973,249.669,233.645
0.224,13.022,4.269,4.269,282.139,249.551,233.777
0.226,13.281,4.268,4.268,282.314,249.420,233.918
0.228,13.553,4.275,4.275,282.494,249.279,234.065
0.230,13.830,4.293,4.293,282.674,249.132,234.214
0.231,14.106,4.327,4.327,282.851,248.980,234.363
0.233,14.376,4.380,4.380,283.020,248.827,234.508
0.235,14.635,4.450,4.450,283.179,248.676,234.645
0.237,14.876,4.530,4.530,283.321,248.530,234.773
0.238,15.093,4.609,4.609,283.444,248.391,234.886
0.240,15.282,4.681,4.681,283.544,248.262,234.982
0.242,15.440,4.735,4.735,283.618,248.146,235.060
0.244,15.573,4.765,4.765,283.672,248.041,235.121
0.246,15.686,4.774,4.774,283.712,247.947,235.169
0.247,15.784,4.770,4.770,283.744,247.862,235.206
0.249,15.872,4.761,4.761,283.774,247.785,235.235
0.251,15.955,4.756,4.756,283.809,247.713,235.260
0.253,16.038,4.761,4.761,283.854,247.648,235.283
0.254,16.129,4.785,4.785,283.915,247.585,235.307
0.256,16.236,4.824,4.824,284.000,247.526,235.336
0.258,16.368,4.875,4.875,284.113,247.467,235.371
0.260,16.534,4.937,4.937,284.261,247.409,235.418
0.262,16.739,5.005,5.005,284.449,247.349,235.476
0.263,16.981,5.077,5.077,284.672,247.290,235.546
0.265,17.250,5.151,5.151,284.922,247.230,235.624
0.267,17.539,5.229,5.229,285.193,247.173,235.708
0.269,17.841,5.313,5.313,285.477,247.119,235.795
0.270,18.146,5.403,5.403,285.765,247.070,235.882
0.272,18.448,5.502,5.502,286.051,247.026,235.967
0.274,18.738,5.610,5.611,286.327,246.988,236.047
0.276,19.007,5.724,5.724,286.586,246.959,236.119
0.278,19.249,5.835,5.835,286.819,246.939,236.180
0.279,19.456,5.936,5.937,287.020,246.930,236.228
0.281,19.620,6.021,6.021,287.180,246.932,236.260
0.283,19.742,6.081,6.081,287.301,246.945,236.277
0.285,19.831,6.113,6.112,287.387,246.966,236.282
0.286,19.893,6.121,6.119,287.442,246.994,236.277
0.288,19.938,6.112,6.111,287.472,247.026,236.265
0.290,19.976,6.094,6.094,287.480,247.060,236.250
0.292,20.015,6.074,6.077,287.473,247.094,236.234
0.294,20.055,6.060,6.066,287.454,247.127,236.219
0.295,20.095,6.053,6.066,287.428,247.155,236.209
0.297,20.130,6.054,6.075,287.400,247.177,236.207
0.299,20.160,6.060,6.088,287.375,247.190,236.215
0.301,20.187,6.070,6.105,287.357,247.193,236.237
0.302,20.224,6.080,6.121,287.350,247.184,236.272
0.304,20.274,6.091,6.134,287.351,247.167,236.318
0.306,20.337,6.100,6.145,287.360,247.141,236.374
0.308,20.409,6.108,6.152,287.375,247.109,236.437
0.310,20.489,6.114,6.156,287.397,247.072,236.505
0.311,20.573,6.118,6.157,287.423,247.033,236.575
0.313,20.659,6.120,6.156,287.453,246.992,236.644
0.315,20.744,6.119,6.153,287.486,246.952,236.712
0.317,20.825,6.116,6.149,287.520,246.913,236.774
0.319,20.899,6.110,6.145,287.554,246.878,236.830
0.320,20.964,6.102,6.142,287.589,246.849,236.876
0.322,21.017,6.091,6.140,287.621,246.826,236.911
0.324,21.061,6.078,6.141,287.652,246.808,236.937
0.326,21.097,6.064,6.145,287.680,246.796,236.956
0.327,21.126,6.050,6.150,287.704,246.787,236.968
0.329,21.148,6.038,6.156,287.724,246.780,236.977
0.331,21.166,6.030,6.160,287.739,246.776,236.984
0.333,21.178,6.028,6.161,287.749,246.773,236.991
0.335,21.188,6.033,6.159,287.753,246.769,236.999
0.336,21.201,6.045,6.153,287.750,246.765,237.011
0.338,21.222,6.060,6.142,287.739,246.758,237.028
0.340,21.253,6.074,6.128,287.720,246.749,237.052
0.342,21.297,6.085,6.110,287.693,246.736,237.084
0.343,21.350,6.088,6.089,287.661,246.720,237.123
0.345,21.407,6.082,6.064,287.629,246.701,237.166
0.347,21.465,6.069,6.040,287.601,246.681,237.212
0.349,21.520,6.052,6.020,287.580,246.658,237.258
0.351,21.569,6.035,6.008,287.573,246.635,237.301
0.352,21.616,6.020,6.006,287.582,246.612,237.340
0.354,21.665,6.011,6.019,287.612,246.589,237.371
0.356,21.729,6.007,6.044,287.668,246.567,237.394
0.358,21.818,6.000,6.071,287.754,246.547,237.405
0.359,21.940,5.979,6.088,287.874,246.529,237.401
0.361,22.100,5.937,6.082,288.033,246.514,237.382
0.363,22.299,5.863,6.042,288.228,246.501,237.348
0.365,22.534,5.750,5.957,288.457,246.489,237.298
0.367,22.800,5.601,5.829,288.716,246.476,237.237
0.368,23.094,5.425,5.669,289.001,246.463,237.164
0.370,23.412,5.236,5.489,289.307,246.447,237.081
0.372,23.749,5.043,5.300,289.631,246.427,236.991
0.374,24.102,4.859,5.114,289.970,246.403,236.894
0.375,24.466,4.692,4.940,290.318,246.372,236.792
0.377,24.838,4.545,4.783,290.673,246.334,236.687
0.379,25.214,4.419,4.642,291.030,246.287,236.581
0.381,25.589,4.313,4.519,291.386,246.231,236.474
0.383,25.961,4.228,4.416,291.737,246.165,236.369
0.384,26.326,4.164,4.334,292.079,246.094,236.266
0.386,26.679,4.120,4.272,292.410,246.018,236.167
0.388,27.018,4.093,4.228,292.726,245.942,236.073
0.390,27.338,4.079,4.199,293.024,245.868,235.985
0.391,27.635,4.075,4.183,293.302,245.798,235.904
0.393,27.905,4.076,4.176,293.554,245.736,235.831
0.395,28.145,4.080,4.175,293.780,245.684,235.768
0.397,28.350,4.084,4.178,293.974,245.645,235.716
0.399,28.517,4.087,4.183,294.135,245.622,235.676
0.400,28.643,4.088,4.188,294.258,245.617,235.649
0.402,28.732,4.086,4.189,294.344,245.632,235.636
0.404,28.793,4.079,4.186,294.399,245.659,235.632
0.406,28.838,4.067,4.176,294.429,245.692,235.635
0.407,28.875,4.052,4.161,294.442,245.726,235.642
0.409,28.903,4.035,4.144,294.444,245.753,235.649
0.411,28.918,4.018,4.126,294.443,245.768,235.654
0.413,28.924,4.004,4.111,294.445,245.763,235.653
0.415,28.959,3.995,4.100,294.458,245.732,235.642
0.416,29.033,3.991,4.095,294.488,245.669,235.618
0.418,29.155,3.991,4.095,294.542,245.567,235.579
0.420,29.335,3.993,4.097,294.628,245.420,235.521
0.422,29.579,3.997,4.100,294.750,245.223,235.442
0.423,29.881,4.001,4.101,294.905,244.983,235.344
0.425,30.229,4.002,4.100,295.086,244.708,235.233
0.427,30.611,4.003,4.097,295.288,244.407,235.114
0.429,31.015,4.007,4.096,295.505,244.089,234.990
0.431,31.430,4.016,4.100,295.731,243.763,234.866
0.432,31.845,4.035,4.112,295.959,243.438,234.748
0.434,32.248,4.067,4.135,296.185,243.122,234.639
0.436,32.627,4.115,4.172,296.401,242.825,234.544
0.438,32.973,4.174,4.221,296.601,242.555,234.468
0.440,33.272,4.241,4.276,296.781,242.320,234.416
0.441,33.518,4.310,4.332,296.934,242.130,234.391
0.443,33.712,4.376,4.386,297.060,241.983,234.392
0.445,33.865,4.434,4.432,297.165,241.873,234.415
0.447,33.987,4.482,4.468,297.250,241.796,234.455
0.448,34.090,4.519,4.496,297.321,241.744,234.507
0.450,34.181,4.547,4.521,297.382,241.714,234.569
0.452,34.266,4.565,4.544,297.435,241.698,234.634
0.454,34.348,4.575,4.570,297.485,241.692,234.698
0.456,34.426,4.577,4.601,297.536,241.689,234.757
0.457,34.501,4.575,4.638,297.591,241.685,234.807
0.459,34.575,4.570,4.678,297.655,241.673,234.843
0.461,34.657,4.568,4.719,297.731,241.648,234.861
0.463,34.754,4.571,4.759,297.820,241.608,234.859
0.464,34.869,4.584,4.795,297.921,241.556,234.842
0.466,34.999,4.608,4.824,298.031,241.493,234.812
0.468,35.142,4.643,4.850,298.148,241.422,234.772
0.470,35.295,4.685,4.875,298.272,241.345,234.726
0.472,35.453,4.729,4.901,298.399,241.265,234.677
0.473,35.613,4.773,4.932,298.528,241.184,234.627
0.475,35.772,4.813,4.971,298.658,241.104,234.581
0.477,35.926,4.848,5.018,298.785,241.028,234.541
0.479,36.072,4.877,5.073,298.909,240.958,234.511
0.480,36.207,4.902,5.132,299.027,240.895,234.494
0.482,36.330,4.926,5.193,299.139,240.843,234.491
0.484,36.444,4.949,5.255,299.243,240.799,234.500
0.486,36.549,4.973,5.313,299.341,240.763,234.519
0.488,36.648,4.998,5.368,299.432,240.734,234.546
0.489,36.741,5.024,5.417,299.516,240.711,234.578
0.491,36.828,5.049,5.460,299.593,240.693,234.613
0.493,36.908,5.073,5.495,299.664,240.679,234.649
0.495,36.982,5.095,5.523,299.728,240.668,234.683
0.496,37.047,5.114,5.541,299.785,240.660,234.713
0.498,37.104,5.131,5.550,299.836,240.652,234.737
0.500,37.151,5.145,5.552,299.880,240.645,234.753
0.502,37.190,5.157,5.547,299.918,240.638,234.758
0.504,37.224,5.168,5.536,299.951,240.630,234.754
0.505,37.255,5.177,5.521,299.978,240.623,234.743
0.507,37.285,5.185,5.502,300.002,240.615,234.726
0.509,37.314,5.191,5.481,300.022,240.608,234.705
0.511,37.343,5.197,5.459,300.039,240.601,234.683
0.512,37.371,5.201,5.438,300.055,240.595,234.661
0.514,37.397,5.203,5.419,300.070,240.590,234.641
0.516,37.419,5.205,5.403,300.085,240.586,234.625
0.518,37.438,5.205,5.392,300.100,240.583,234.614
0.520,37.455,5.205,5.386,300.117,240.583,234.610
0.521,37.475,5.205,5.384,300.136,240.584,234.615
0.523,37.501,5.205,5.389,300.158,240.586,234.629
0.525,37.536,5.206,5.399,300.186,240.587,234.650
0.527,37.578,5.209,5.417,300.219,240.584,234.676
0.528,37.630,5.214,5.439,300.260,240.578,234.707
0.530,37.691,5.223,5.464,300.311,240.564,234.739
0.532,37.764,5.237,5.490,300.372,240.543,234.772
0.534,37.850,5.257,5.514,300.445,240.511,234.805
0.536,37.952,5.284,5.535,300.532,240.467,234.836
0.537,38.071,5.319,5.552,300.633,240.410,234.862
0.539,38.211,5.359,5.566,300.751,240.338,234.884
0.541,38.375,5.404,5.581,300.887,240.248,234.898
0.543,38.560,5.452,5.601,301.039,240.143,234.906
0.544,38.764,5.499,5.628,301.204,240.024,234.906
0.546,38.982,5.546,5.665,301.380,239.895,234.900
0.548,39.209,5.590,5.712,301.562,239.759,234.888
0.550,39.441,5.635,5.766,301.747,239.620,234.870
0.552,39.674,5.680,5.823,301.932,239.481,234.848
0.553,39.903,5.729,5.880,302.113,239.344,234.820
0.555,40.123,5.781,5.934,302.288,239.214,234.789
0.557,40.330,5.839,5.980,302.452,239.093,234.753
0.559,40.519,5.900,6.019,302.602,238.984,234.715
0.560,40.687,5.961,6.051,302.735,238.891,234.673
0.562,40.831,6.019,6.077,302.850,238.815,234.629
0.564,40.954,6.069,6.098,302.949,238.756,234.585
0.566,41.060,6.108,6.115,303.034,238.710,234.542
0.568,41.150,6.135,6.128,303.108,238.678,234.503
0.569,41.227,6.150,6.137,303.173,238.656,234.468
0.571,41.295,6.157,6.144,303.233,238.644,234.439
0.573,41.355,6.157,6.149,303.290,238.639,234.419
0.575,41.412,6.155,6.152,303.346,238.640,234.409
0.577,41.470,6.151,6.153,303.404,238.646,234.410
0.578,41.535,6.148,6.153,303.467,238.654,234.425
0.580,41.612,6.144,6.150,303.537,238.663,234.455
0.582,41.704,6.136,6.143,303.616,238.673,234.501
0.584,41.811,6.125,6.130,303.704,238.681,234.560
0.585,41.929,6.108,6.109,303.799,238.690,234.630
0.587,42.058,6.085,6.081,303.901,238.699,234.708
0.589,42.193,6.054,6.046,304.008,238.707,234.790
0.591,42.332,6.018,6.008,304.120,238.716,234.873
0.593,42.473,5.977,5.970,304.234,238.726,234.954
0.594,42.613,5.932,5.935,304.351,238.736,235.031
0.596,42.750,5.883,5.906,304.468,238.747,235.100
0.598,42.881,5.833,5.885,304.585,238.759,235.159
0.600,43.006,5.782,5.871,304.701,238.772,235.203
0.601,43.124,5.734,5.862,304.815,238.786,235.231
0.603,43.237,5.691,5.856,304.926,238.802,235.243
0.605,43.346,5.656,5.850,305.034,238.819,235.241
0.607,43.454,5.632,5.843,305.140,238.837,235.228
0.609,43.561,5.618,5.834,305.243,238.856,235.205
0.610,43.668,5.613,5.824,305.343,238.876,235.175
0.612,43.773,5.615,5.813,305.440,238.897,235.140
0.614,43.878,5.619,5.802,305.535,238.919,235.102
0.616,43.980,5.625,5.793,305.627,238.941,235.062
0.617,44.079,5.630,5.786,305.715,238.965,235.024
0.619,44.175,5.632,5.781,305.801,238.989,234.990
0.621,44.267,5.631,5.776,305.884,239.014,234.960
0.623,44.354,5.628,5.772,305.965,239.040,234.937
0.625,44.438,5.622,5.766,306.042,239.066,234.919
0.626,44.520,5.613,5.758,306.119,239.094,234.906
0.628,44.601,5.601,5.748,306.193,239.123,234.896
0.630,44.681,5.587,5.736,306.267,239.154,234.890
0.632,44.761,5.570,5.721,306.340,239.186,234.886
0.633,44.842,5.551,5.704,306.413,239.221,234.884
0.635,44.923,5.530,5.685,306.486,239.257,234.883
0.637,45.007,5.509,5.665,306.559,239.296,234.883
0.639,45.092,5.486,5.644,306.634,239.338,234.882
0.641,45.180,5.464,5.623,306.710,239.382,234.880
0.642,45.271,5.442,5.601,306.788,239.429,234.877
0.644,45.363,5.420,5.579,306.866,239.478,234.873
0.646,45.456,5.400,5.559,306.945,239.528,234.869
0.648,45.549,5.382,5.539,307.023,239.578,234.864
0.649,45.640,5.366,5.520,307.099,239.627,234.859
0.651,45.729,5.351,5.503,307.174,239.675,234.855
0.653,45.814,5.337,5.488,307.246,239.720,234.851
0.655,45.895,5.322,5.474,307.315,239.763,234.849
0.657,45.970,5.308,5.461,307.379,239.801,234.848
0.658,46.039,5.293,5.451,307.439,239.834,234.849
0.660,46.100,5.277,5.441,307.493,239.862,234.852
0.662,46.153,5.263,5.433,307.541,239.884,234.858
0.664,46.200,5.251,5.425,307.585,239.900,234.865
0.665,46.242,5.241,5.418,307.624,239.913,234.875
0.667,46.282,5.235,5.410,307.660,239.922,234.887
0.669,46.319,5.232,5.402,307.694,239.929,234.901
0.671,46.356,5.231,5.394,307.728,239.935,234.916
0.673,46.393,5.231,5.386,307.761,239.942,234.932
0.674,46.432,5.229,5.379,307.795,239.949,234.949
0.676,46.474,5.224,5.372,307.831,239.960,234.967
0.678,46.519,5.215,5.367,307.870,239.973,234.986
0.680,46.569,5.202,5.363,307.912,239.991,235.005
0.681,46.626,5.185,5.362,307.960,240.014,235.024
0.683,46.689,5.165,5.364,308.013,240.043,235.044
0.685,46.759,5.143,5.369,308.071,240.077,235.065
0.687,46.836,5.120,5.380,308.133,240.116,235.087
0.689,46.920,5.097,5.395,308.201,240.160,235.112
0.690,47.011,5.074,5.412,308.272,240.207,235.141
0.692,47.108,5.048,5.429,308.349,240.259,235.172
0.694,47.212,5.020,5.442,308.429,240.314,235.208
0.696,47.323,4.989,5.449,308.514,240.372,235.248
0.698,47.440,4.953,5.446,308.604,240.433,235.294
0.699,47.564,4.913,5.432,308.697,240.497,235.346
0.701,47.695,4.871,5.410,308.794,240.563,235.403
0.703,47.833,4.828,5.382,308.895,240.631,235.468
0.705,47.976,4.787,5.351,308.999,240.700,235.537
0.706,48.124,4.748,5.320,309.105,240.771,235.612
0.708,48.275,4.714,5.290,309.213,240.843,235.691
0.710,48.430,4.685,5.263,309.322,240.915,235.773
0.712,48.587,4.659,5.237,309.432,240.988,235.858
0.714,48.745,4.634,5.213,309.542,241.060,235.945
0.715,48.903,4.611,5.190,309.651,241.133,236.034
0.717,49.060,4.586,5.168,309.759,241.204,236.123
0.719,49.216,4.560,5.145,309.865,241.275,236.213
0.721,49.369,4.533,5.123,309.969,241.344,236.301
0.722,49.519,4.507,5.104,310.070,241.411,236.389
0.724,49.666,4.484,5.089,310.168,241.477,236.476
0.726,49.811,4.465,5.079,310.264,241.541,236.564
