"T","Distance","Radius","FreeRadius","X","Y","Z"
0.000,0.000,2.457,2.457,199.844,224.083,192.201
0.001,0.512,2.539,2.539,200.306,224.302,192.182
0.003,1.019,2.622,2.622,200.764,224.520,192.162
0.004,1.517,2.706,2.706,201.213,224.732,192.143
0.006,2.000,2.792,2.792,201.650,224.939,192.125
0.007,2.464,2.880,2.880,202.069,225.136,192.108
0.009,2.904,2.970,2.970,202.467,225.323,192.093
0.010,3.314,3.064,3.064,202.840,225.496,192.079
0.011,3.692,3.161,3.161,203.182,225.654,192.067
0.013,4.030,3.259,3.259,203.490,225.795,192.058
0.014,4.326,3.354,3.354,203.759,225.916,192.051
0.016,4.573,3.445,3.445,203.986,226.015,192.047
0.017,4.768,3.529,3.529,204.165,226.090,192.046
0.019,4.908,3.601,3.601,204.296,226.141,192.048
0.020,5.001,3.660,3.660,204.384,226.170,192.053
0.022,5.052,3.704,3.704,204.433,226.183,192.059
0.023,5.071,3.733,3.733,204.451,226.184,192.066
0.024,5.084,3.751,3.751,204.443,226.176,192.072
0.026,5.115,3.762,3.762,204.415,226.164,192.076
0.027,5.159,3.766,3.766,204.372,226.153,192.078
0.029,5.210,3.769,3.769,204.322,226.146,192.077
0.030,5.263,3.772,3.772,204.268,226.147,192.072
0.032,5.316,3.778,3.778,204.219,226.161,192.061
0.033,5.370,3.788,3.788,204.179,226.193,192.044
0.034,5.432,3.801,3.801,204.153,226.245,192.021
0.036,5.513,3.817,3.817,204.146,226.319,191.990
0.037,5.614,3.836,3.836,204.155,226.413,191.953
0.039,5.732,3.857,3.857,204.176,226.521,191.911
0.040,5.865,3.881,3.881,204.210,226.640,191.865
0.042,6.007,3.906,3.906,204.252,226.768,191.816
0.043,6.156,3.933,3.933,204.300,226.899,191.766
0.044,6.306,3.961,3.961,204.353,227.030,191.715
0.046,6.454,3.988,3.988,204.408,227.158,191.664
0.047,6.595,4.013,4.013,204.462,227.278,191.615
0.049,6.725,4.036,4.036,204.514,227.388,191.569
0.050,6.838,4.055,4.055,204.561,227.483,191.526
0.052,6.933,4.071,4.071,204.600,227.559,191.489
0.053,7.006,4.083,4.083,204.632,227.617,191.456
0.055,7.062,4.091,4.091,204.657,227.659,191.429
0.056,7.104,4.097,4.097,204.675,227.687,191.405
0.057,7.133,4.101,4.101,204.689,227.704,191.385
0.059,7.153,4.103,4.103,204.698,227.712,191.369
0.060,7.168,4.105,4.105,204.703,227.714,191.355
0.062,7.179,4.106,4.106,204.705,227.712,191.344
0.063,7.189,4.108,4.108,204.705,227.709,191.335
0.065,7.197,4.110,4.110,204.705,227.706,191.327
0.066,7.204,4.115,4.115,204.703,227.708,191.321
0.067,7.213,4.121,4.121,204.703,227.715,191.315
0.069,7.230,4.130,4.130,204.703,227.730,191.309
0.070,7.254,4.142,4.142,204.705,227.754,191.303
0.072,7.285,4.157,4.157,204.709,227.784,191.295
0.073,7.322,4.175,4.175,204.714,227.819,191.285
0.075,7.363,4.195,4.195,204.720,227.857,191.273
0.076,7.408,4.214,4.214,204.728,227.898,191.257
0.077,7.456,4.231,4.231,204.738,227.940,191.236
0.079,7.505,4.245,4.245,204.749,227.981,191.211
0.080,7.557,4.254,4.254,204.761,228.021,191.180
0.082,7.610,4.257,4.257,204.775,228.056,191.142
0.083,7.667,4.255,4.255,204.790,228.087,191.096
0.085,7.728,4.251,4.251,204.807,228.111,191.043
0.086,7.795,4.246,4.246,204.825,228.127,190.981
0.088,7.868,4.243,4.243,204.845,228.137,190.912
0.089,7.946,4.245,4.245,204.868,228.141,190.837
0.090,8.029,4.255,4.255,204.893,228.142,190.758
0.092,8.115,4.273,4.273,204.922,228.139,190.677
0.093,8.202,4.300,4.300,204.956,228.135,190.596
0.095,8.291,4.332,4.332,204.994,228.130,190.516
0.096,8.379,4.365,4.365,205.037,228.127,190.440
0.098,8.466,4.396,4.396,205.086,228.126,190.368
0.099,8.551,4.420,4.420,205.142,228.128,190.303
0.100,8.636,4.435,4.435,205.204,228.136,190.247
0.102,8.721,4.437,4.437,205.274,228.150,190.200
0.103,8.809,4.426,4.426,205.352,228.171,190.165
0.105,8.901,4.404,4.404,205.435,228.199,190.138
0.106,8.998,4.374,4.374,205.524,228.234,190.119
0.108,9.099,4.337,4.337,205.615,228.276,190.104
0.109,9.205,4.298,4.298,205.707,228.324,190.091
0.110,9.312,4.257,4.257,205.800,228.378,190.078
0.112,9.422,4.218,4.218,205.890,228.439,190.062
0.113,9.533,4.180,4.180,205.977,228.505,190.042
0.115,9.645,4.145,4.145,206.058,228.576,190.014
0.116,9.758,4.113,4.113,206.133,228.653,189.977
0.118,9.874,4.082,4.082,206.199,228.735,189.928
0.119,9.995,4.052,4.052,206.256,228.821,189.865
0.121,10.123,4.025,4.025,206.301,228.912,189.788
0.122,10.257,3.999,3.999,206.337,229.005,189.698
0.123,10.398,3.975,3.975,206.365,229.100,189.598
0.125,10.544,3.953,3.953,206.385,229.196,189.490
0.126,10.692,3.935,3.935,206.399,229.291,189.376
0.128,10.842,3.920,3.920,206.408,229.384,189.260
0.129,10.989,3.910,3.910,206.413,229.474,189.143
0.131,11.132,3.905,3.905,206.415,229.559,189.028
0.132,11.268,3.905,3.905,206.416,229.638,188.917
0.133,11.395,3.911,3.911,206.416,229.711,188.813
0.135,11.510,3.921,3.921,206.418,229.775,188.719
0.136,11.610,3.934,3.934,206.421,229.830,188.635
0.138,11.695,3.948,3.948,206.426,229.876,188.563
0.139,11.768,3.962,3.962,206.433,229.914,188.502
0.141,11.831,3.974,3.974,206.440,229.947,188.448
0.142,11.886,3.984,3.984,206.447,229.976,188.402
0.143,11.936,3.991,3.991,206.453,230.004,188.360
0.145,11.983,3.996,3.996,206.457,230.030,188.322
0.146,12.030,3.999,3.999,206.459,230.059,188.285
0.148,12.079,4.002,4.002,206.457,230.091,188.249
0.149,12.133,4.007,4.007,206.451,230.128,188.210
0.151,12.195,4.013,4.013,206.439,230.172,188.167
0.152,12.268,4.022,4.022,206.422,230.225,188.120
0.154,12.355,4.035,4.035,206.399,230.289,188.065
0.155,12.456,4.050,4.050,206.370,230.363,188.003
0.156,12.569,4.066,4.066,206.340,230.447,187.934
0.158,12.693,4.084,4.084,206.310,230.540,187.858
0.159,12.826,4.102,4.102,206.283,230.641,187.776
0.161,12.967,4.119,4.119,206.263,230.749,187.687
0.162,13.116,4.135,4.135,206.251,230.864,187.593
0.164,13.272,4.149,4.149,206.252,230.985,187.494
0.165,13.436,4.163,4.163,206.267,231.110,187.389
0.166,13.609,4.175,4.175,206.300,231.240,187.280
0.168,13.792,4.188,4.188,206.353,231.373,187.167
0.169,13.987,4.201,4.201,206.429,231.509,187.049
0.171,14.197,4.215,4.215,206.530,231.646,186.927
0.172,14.421,4.230,4.230,206.655,231.785,186.802
0.174,14.660,4.249,4.249,206.800,231.924,186.673
0.175,14.911,4.272,4.272,206.962,232.063,186.541
0.176,15.173,4.302,4.302,207.138,232.202,186.405
0.178,15.443,4.341,4.341,207.324,232.340,186.266
0.179,15.719,4.391,4.391,207.517,232.476,186.123
0.181,15.999,4.453,4.453,207.714,232.611,185.978
0.182,16.280,4.532,4.532,207.912,232.744,185.828
0.184,16.559,4.625,4.625,208.107,232.873,185.676
0.185,16.834,4.731,4.731,208.295,233.000,185.521
0.187,17.103,4.845,4.845,208.475,233.122,185.363
0.188,17.364,4.965,4.965,208.643,233.240,185.201
0.189,17.616,5.087,5.087,208.799,233.354,185.039
0.191,17.859,5.207,5.207,208.944,233.462,184.877
0.192,18.091,5.322,5.322,209.078,233.563,184.717
0.194,18.312,5.429,5.429,209.202,233.658,184.561
0.195,18.520,5.527,5.527,209.316,233.746,184.410
0.197,18.716,5.618,5.618,209.422,233.825,184.267
0.198,18.897,5.699,5.699,209.519,233.896,184.131
0.199,19.062,5.771,5.771,209.608,233.958,184.007
0.201,19.211,5.834,5.834,209.690,234.010,183.894
0.202,19.342,5.887,5.887,209.765,234.052,183.794
0.204,19.455,5.930,5.930,209.834,234.083,183.710
0.205,19.550,5.965,5.965,209.897,234.103,183.642
0.207,19.631,5.993,5.993,209.956,234.113,183.588
0.208,19.698,6.016,6.016,210.009,234.116,183.547
0.209,19.757,6.034,6.034,210.059,234.113,183.517
0.211,19.809,6.049,6.049,210.106,234.107,183.495
0.212,19.856,6.063,6.063,210.150,234.098,183.482
0.214,19.900,6.076,6.076,210.193,234.088,183.474
0.215,19.942,6.090,6.090,210.234,234.080,183.470
0.217,19.982,6.104,6.104,210.274,234.075,183.468
0.218,20.022,6.119,6.119,210.314,234.075,183.467
0.220,20.063,6.136,6.136,210.354,234.082,183.465
0.221,20.107,6.155,6.155,210.395,234.096,183.460
0.222,20.157,6.176,6.176,210.438,234.120,183.451
0.224,20.212,6.200,6.200,210.482,234.151,183.439
0.225,20.272,6.225,6.225,210.526,234.188,183.424
0.227,20.336,6.250,6.250,210.571,234.230,183.406
0.228,20.403,6.274,6.274,210.616,234.276,183.386
0.230,20.473,6.296,6.296,210.661,234.324,183.364
0.231,20.543,6.314,6.314,210.706,234.373,183.340
0.232,20.613,6.327,6.327,210.749,234.422,183.315
0.234,20.681,6.335,6.335,210.792,234.469,183.289
0.235,20.747,6.338,6.337,210.833,234.512,183.263
0.237,20.809,6.337,6.337,210.873,234.552,183.236
0.238,20.867,6.335,6.335,210.911,234.586,183.210
0.240,20.920,6.333,6.332,210.947,234.615,183.184
0.241,20.969,6.331,6.331,210.981,234.640,183.158
0.242,21.017,6.333,6.333,211.014,234.662,183.132
0.244,21.063,6.338,6.338,211.045,234.684,183.106
0.245,21.108,6.346,6.346,211.075,234.706,183.080
0.247,21.154,6.355,6.356,211.104,234.731,183.054
0.248,21.202,6.365,6.366,211.132,234.759,183.027
0.250,21.253,6.373,6.375,211.159,234.791,182.999
0.251,21.308,6.380,6.381,211.185,234.831,182.971
0.253,21.369,6.383,6.383,211.211,234.878,182.942
0.254,21.438,6.382,6.381,211.237,234.934,182.912
0.255,21.516,6.378,6.375,211.262,235.001,182.880
0.257,21.603,6.371,6.366,211.287,235.078,182.848
0.258,21.698,6.363,6.358,211.311,235.163,182.815
0.260,21.799,6.355,6.350,211.335,235.255,182.779
0.261,21.906,6.349,6.345,211.357,235.353,182.743
0.263,22.016,6.345,6.345,211.379,235.454,182.704
0.264,22.129,6.345,6.350,211.399,235.557,182.664
0.265,22.243,6.347,6.360,211.418,235.661,182.622
0.267,22.356,6.349,6.372,211.435,235.765,182.578
0.268,22.469,6.350,6.385,211.451,235.866,182.531
0.270,22.578,6.347,6.398,211.464,235.963,182.483
0.271,22.684,6.340,6.409,211.475,236.055,182.431
0.273,22.785,6.325,6.417,211.484,236.140,182.377
0.274,22.884,6.303,6.419,211.490,236.220,182.319
0.275,22.983,6.273,6.415,211.494,236.295,182.255
0.277,23.084,6.235,6.404,211.494,236.367,182.185
0.278,23.190,6.191,6.385,211.492,236.438,182.106
0.280,23.304,6.142,6.357,211.486,236.509,182.016
0.281,23.428,6.089,6.321,211.477,236.580,181.916
0.283,23.564,6.031,6.274,211.464,236.654,181.802
0.284,23.714,5.971,6.217,211.448,236.732,181.675
0.286,23.881,5.909,6.152,211.428,236.814,181.531
0.287,24.067,5.847,6.080,211.404,236.904,181.370
0.288,24.273,5.785,6.006,211.376,237.000,181.190
0.290,24.499,5.725,5.931,211.343,237.105,180.992
0.291,24.743,5.668,5.857,211.308,237.217,180.778
0.293,24.998,5.615,5.789,211.270,237.333,180.554
0.294,25.259,5.567,5.728,211.230,237.451,180.324
0.296,25.523,5.525,5.674,211.190,237.569,180.092
0.297,25.783,5.486,5.626,211.150,237.685,179.863
0.298,26.035,5.451,5.584,211.111,237.798,179.641
0.300,26.275,5.418,5.547,211.074,237.904,179.430
0.301,26.496,5.387,5.515,211.040,238.003,179.234
0.303,26.695,5.357,5.485,211.009,238.091,179.059
0.304,26.867,5.327,5.458,210.983,238.168,178.907
0.306,27.005,5.298,5.434,210.963,238.230,178.785
0.307,27.110,5.271,5.413,210.948,238.277,178.693
0.308,27.184,5.248,5.396,210.939,238.311,178.628
0.310,27.231,5.229,5.384,210.934,238.333,178.587
0.311,27.254,5.217,5.376,210.934,238.345,178.567
0.313,27.259,5.212,5.375,210.938,238.347,178.564
0.314,27.274,5.216,5.379,210.945,238.343,178.576
0.316,27.301,5.228,5.388,210.955,238.333,178.599
0.317,27.337,5.246,5.402,210.967,238.319,178.630
0.319,27.379,5.268,5.418,210.982,238.302,178.666
0.320,27.424,5.293,5.435,210.998,238.284,178.703
0.321,27.467,5.318,5.452,211.014,238.267,178.739
0.323,27.505,5.343,5.468,211.032,238.252,178.770
0.324,27.538,5.365,5.481,211.049,238.240,178.795
0.326,27.563,5.384,5.490,211.066,238.231,178.811
0.327,27.583,5.399,5.496,211.083,238.226,178.820
0.329,27.600,5.408,5.498,211.100,238.225,178.819
0.330,27.619,5.411,5.496,211.116,238.228,178.807
0.331,27.647,5.407,5.489,211.131,238.235,178.785
0.333,27.687,5.396,5.478,211.144,238.247,178.750
0.334,27.739,5.377,5.462,211.156,238.265,178.702
0.336,27.805,5.349,5.441,211.167,238.287,178.641
0.337,27.887,5.315,5.415,211.176,238.316,178.565
0.339,27.985,5.275,5.385,211.182,238.350,178.473
0.340,28.100,5.230,5.351,211.187,238.391,178.366
0.341,28.231,5.181,5.313,211.189,238.437,178.243
0.343,28.374,5.130,5.271,211.190,238.488,178.110
0.344,28.525,5.076,5.225,211.190,238.542,177.968
0.346,28.682,5.022,5.177,211.189,238.598,177.822
0.347,28.841,4.969,5.127,211.187,238.656,177.673
0.349,28.999,4.918,5.077,211.186,238.713,177.526
0.350,29.152,4.871,5.028,211.186,238.769,177.384
0.352,29.297,4.828,4.982,211.187,238.823,177.249
0.353,29.431,4.791,4.940,211.189,238.873,177.126
0.354,29.550,4.761,4.903,211.194,238.919,177.016
0.356,29.651,4.739,4.872,211.201,238.959,176.923
0.357,29.732,4.722,4.846,211.211,238.993,176.850
0.359,29.795,4.710,4.825,211.223,239.020,176.795
0.360,29.844,4.701,4.808,211.238,239.044,176.754
0.362,29.884,4.694,4.796,211.254,239.064,176.724
0.363,29.917,4.688,4.787,211.271,239.083,176.704
0.364,29.947,4.681,4.782,211.289,239.102,176.688
0.366,29.977,4.673,4.779,211.307,239.121,176.674
0.367,30.008,4.663,4.777,211.325,239.143,176.659
0.369,30.044,4.650,4.775,211.342,239.168,176.641
0.370,30.087,4.634,4.771,211.357,239.199,176.615
0.372,30.141,4.615,4.765,211.371,239.236,176.578
0.373,30.209,4.593,4.754,211.383,239.281,176.528
0.374,30.294,4.565,4.738,211.392,239.334,176.462
0.376,30.396,4.534,4.717,211.399,239.395,176.381
0.377,30.514,4.501,4.691,211.405,239.464,176.286
0.379,30.646,4.466,4.663,211.411,239.540,176.178
0.380,30.791,4.430,4.633,211.417,239.622,176.059
0.382,30.948,4.397,4.603,211.425,239.710,175.929
0.383,31.116,4.365,4.574,211.434,239.802,175.789
0.385,31.293,4.338,4.547,211.446,239.899,175.641
0.386,31.479,4.315,4.523,211.461,239.999,175.485
0.387,31.672,4.297,4.504,211.480,240.103,175.323
0.389,31.871,4.285,4.488,211.504,240.208,175.157
0.390,32.074,4.279,4.478,211.534,240.315,174.986
0.392,32.282,4.280,4.474,211.569,240.424,174.812
0.393,32.492,4.288,4.476,211.609,240.532,174.637
0.395,32.704,4.303,4.484,211.650,240.640,174.459
0.396,32.916,4.325,4.500,211.692,240.747,174.282
0.397,33.126,4.353,4.522,211.732,240.853,174.104
0.399,33.334,4.385,4.549,211.770,240.956,173.928
0.400,33.538,4.419,4.581,211.802,241.056,173.753
0.402,33.737,4.454,4.616,211.828,241.153,173.580
0.403,33.931,4.488,4.654,211.846,241.246,173.411
0.405,34.118,4.520,4.694,211.853,241.333,173.246
0.406,34.298,4.549,4.736,211.849,241.415,173.086
0.407,34.471,4.576,4.779,211.832,241.491,172.932
0.409,34.637,4.604,4.822,211.801,241.560,172.784
0.410,34.798,4.633,4.867,211.758,241.623,172.642
0.412,34.952,4.666,4.912,211.706,241.681,172.509
0.413,35.100,4.703,4.957,211.648,241.733,172.383
0.415,35.242,4.746,5.002,211.584,241.779,172.265
0.416,35.376,4.796,5.047,211.517,241.821,172.157
0.418,35.501,4.849,5.090,211.450,241.858,172.059
0.419,35.616,4.902,5.129,211.383,241.891,171.970
0.420,35.720,4.954,5.165,211.320,241.920,171.893
0.422,35.811,5.002,5.195,211.263,241.945,171.826
0.423,35.888,5.042,5.219,211.213,241.966,171.772
0.425,35.949,5.072,5.234,211.173,241.985,171.730
0.426,35.995,5.091,5.242,211.142,242.000,171.699
0.428,36.029,5.101,5.244,211.121,242.014,171.678
0.429,36.052,5.104,5.242,211.108,242.028,171.663
0.430,36.069,5.103,5.237,211.103,242.041,171.653
0.432,36.085,5.098,5.233,211.105,242.054,171.646
0.433,36.103,5.094,5.231,211.113,242.070,171.639
0.435,36.127,5.091,5.233,211.127,242.087,171.631
0.436,36.157,5.090,5.240,211.145,242.108,171.619
0.438,36.195,5.093,5.252,211.168,242.132,171.602
0.439,36.242,5.098,5.267,211.194,242.161,171.576
0.440,36.299,5.104,5.284,211.222,242.196,171.541
0.442,36.369,5.111,5.302,211.252,242.237,171.493
0.443,36.450,5.119,5.320,211.284,242.284,171.434
0.445,36.544,5.126,5.338,211.317,242.337,171.364
0.446,36.648,5.134,5.353,211.350,242.394,171.284
0.448,36.761,5.142,5.368,211.383,242.456,171.195
0.449,36.883,5.152,5.381,211.416,242.521,171.098
0.451,37.011,5.164,5.394,211.448,242.590,170.994
0.452,37.147,5.179,5.406,211.478,242.662,170.883
0.453,37.287,5.198,5.417,211.507,242.736,170.767
0.455,37.432,5.221,5.428,211.534,242.811,170.647
0.456,37.580,5.250,5.440,211.558,242.888,170.523
0.458,37.730,5.283,5.453,211.579,242.965,170.396
0.459,37.880,5.319,5.466,211.596,243.043,170.268
0.461,38.032,5.358,5.481,211.612,243.119,170.138
0.462,38.182,5.398,5.498,211.625,243.194,170.009
0.463,38.330,5.438,5.518,211.638,243.266,169.880
0.465,38.476,5.477,5.541,211.651,243.335,169.752
0.466,38.618,5.515,5.567,211.665,243.400,169.626
0.468,38.755,5.550,5.597,211.682,243.459,169.504
0.469,38.887,5.581,5.631,211.701,243.513,169.385
0.471,39.013,5.608,5.670,211.725,243.560,169.271
0.472,39.132,5.628,5.714,211.753,243.599,169.162
0.473,39.245,5.641,5.763,211.787,243.630,169.059
0.475,39.351,5.646,5.819,211.828,243.651,168.963
0.476,39.453,5.643,5.880,211.876,243.663,168.873
0.478,39.551,5.635,5.944,211.926,243.670,168.789
0.479,39.647,5.624,6.007,211.977,243.673,168.709
0.481,39.739,5.613,6.068,212.025,243.677,168.630
0.482,39.828,5.607,6.122,212.065,243.685,168.551
0.484,39.916,5.609,6.166,212.096,243.700,168.470
0.485,40.007,5.621,6.199,212.113,243.725,168.384
0.486,40.106,5.645,6.216,212.113,243.764,168.293
0.488,40.221,5.678,6.219,212.093,243.820,168.195
0.489,40.359,5.716,6.210,212.049,243.895,168.087
0.491,40.530,5.755,6.189,211.978,243.994,167.968
0.492,40.738,5.789,6.157,211.877,244.120,167.835
0.494,40.986,5.816,6.116,211.746,244.272,167.690
0.495,41.267,5.830,6.066,211.590,244.447,167.535
0.496,41.574,5.829,6.010,211.414,244.639,167.372
0.498,41.901,5.815,5.949,211.222,244.844,167.205
0.499,42.240,5.789,5.885,211.021,245.058,167.037
0.501,42.584,5.757,5.820,210.815,245.277,166.869
0.502,42.925,5.719,5.757,210.609,245.495,166.706
0.504,43.257,5.680,5.697,210.408,245.708,166.550
0.505,43.572,5.643,5.643,210.218,245.912,166.403
0.506,43.863,5.609,5.596,210.044,246.103,166.269
0.508,44.122,5.579,5.557,209.890,246.275,166.151
0.509,44.343,5.554,5.527,209.762,246.424,166.051
0.511,44.525,5.534,5.506,209.660,246.552,165.970
0.512,44.673,5.518,5.494,209.584,246.662,165.908
0.514,44.792,5.508,5.493,209.533,246.759,165.863
0.515,44.889,5.503,5.502,209.505,246.847,165.834
0.516,44.974,5.503,5.522,209.499,246.932,165.822
0.518,45.060,5.505,5.547,209.514,247.016,165.825
0.519,45.157,5.505,5.573,209.548,247.105,165.842
0.521,45.272,5.500,5.593,209.600,247.204,165.872
0.522,45.411,5.486,5.602,209.669,247.316,165.916
0.524,45.575,5.461,5.594,209.753,247.446,165.972
0.525,45.769,5.419,5.564,209.851,247.599,166.038
0.527,45.994,5.359,5.508,209.963,247.778,166.115
0.528,46.245,5.284,5.429,210.084,247.981,166.201
0.529,46.518,5.198,5.337,210.213,248.204,166.291
0.531,46.806,5.107,5.237,210.347,248.441,166.385
0.532,47.103,5.017,5.139,210.482,248.688,166.479
0.534,47.403,4.931,5.048,210.615,248.941,166.571
0.535,47.700,4.854,4.974,210.744,249.193,166.659
0.537,47.987,4.792,4.922,210.865,249.441,166.738
0.538,48.259,4.744,4.891,210.976,249.679,166.808
0.539,48.510,4.709,4.876,211.074,249.904,166.865
0.541,48.735,4.684,4.873,211.155,250.109,166.906
0.542,48.928,4.669,4.877,211.217,250.291,166.930
0.544,49.087,4.661,4.883,211.257,250.445,166.933
0.545,49.219,4.659,4.888,211.279,250.574,166.919
0.547,49.330,4.661,4.887,211.285,250.681,166.887
0.548,49.431,4.666,4.882,211.280,250.769,166.841
0.549,49.526,4.671,4.877,211.268,250.844,166.783
0.551,49.620,4.677,4.874,211.251,250.907,166.715
0.552,49.716,4.681,4.879,211.234,250.962,166.638
0.554,49.814,4.681,4.894,211.220,251.013,166.556
0.555,49.915,4.677,4.924,211.214,251.064,166.469
0.557,50.019,4.667,4.970,211.218,251.118,166.381
0.558,50.127,4.651,5.032,211.237,251.179,166.292
0.560,50.245,4.630,5.104,211.274,251.250,166.207
0.561,50.375,4.605,5.181,211.332,251.333,166.124
0.562,50.521,4.578,5.260,211.409,251.429,166.046
0.564,50.683,4.548,5.335,211.503,251.538,165.972
0.565,50.861,4.518,5.401,211.614,251.658,165.901
0.567,51.054,4.488,5.454,211.739,251.789,165.833
0.568,51.262,4.459,5.495,211.876,251.932,165.769
0.570,51.483,4.432,5.527,212.023,252.084,165.707
0.571,51.716,4.407,5.553,212.180,252.247,165.648
0.572,51.960,4.386,5.576,212.343,252.419,165.592
0.574,52.214,4.369,5.599,212.512,252.600,165.538
0.575,52.476,4.357,5.625,212.685,252.790,165.486
0.577,52.744,4.351,5.658,212.860,252.987,165.436
0.578,53.018,4.351,5.697,213.035,253.192,165.387
0.580,53.295,4.360,5.741,213.209,253.402,165.339
0.581,53.572,4.378,5.789,213.381,253.614,165.289
0.582,53.849,4.406,5.841,213.550,253.826,165.238
0.584,54.122,4.445,5.895,213.715,254.037,165.182
