"T","Distance","Radius","FreeRadius","X","Y","Z"
0.000,0.000,2.671,2.671,222.081,207.989,193.618
0.001,0.173,2.673,2.673,222.166,207.979,193.768
0.003,0.348,2.675,2.675,222.252,207.968,193.920
0.004,0.524,2.681,2.681,222.340,207.956,194.072
0.006,0.703,2.690,2.690,222.430,207.941,194.226
0.007,0.887,2.705,2.705,222.523,207.923,194.383
0.009,1.075,2.726,2.726,222.620,207.900,194.543
0.010,1.269,2.755,2.755,222.722,207.873,194.707
0.012,1.471,2.792,2.792,222.829,207.840,194.874
0.013,1.681,2.840,2.840,222.942,207.801,195.047
0.015,1.902,2.897,2.897,223.062,207.754,195.226
0.016,2.133,2.965,2.965,223.190,207.699,195.410
0.018,2.373,3.045,3.045,223.324,207.636,195.599
0.019,2.618,3.137,3.137,223.462,207.568,195.790
0.021,2.862,3.242,3.242,223.600,207.497,195.979
0.022,3.102,3.357,3.357,223.736,207.424,196.163
0.024,3.333,3.478,3.478,223.866,207.351,196.339
0.025,3.549,3.597,3.597,223.988,207.281,196.503
0.026,3.747,3.708,3.708,224.098,207.216,196.654
0.028,3.920,3.804,3.804,224.193,207.158,196.786
0.029,4.065,3.878,3.878,224.271,207.107,196.898
0.031,4.177,3.926,3.926,224.328,207.068,196.985
0.032,4.253,3.944,3.944,224.364,207.040,197.047
0.034,4.298,3.940,3.940,224.380,207.023,197.086
0.035,4.320,3.921,3.921,224.382,207.015,197.105
0.037,4.329,3.893,3.893,224.373,207.014,197.109
0.038,4.346,3.862,3.862,224.358,207.018,197.101
0.040,4.371,3.837,3.837,224.341,207.025,197.084
0.041,4.397,3.823,3.823,224.327,207.033,197.064
0.043,4.422,3.822,3.822,224.319,207.042,197.043
0.044,4.441,3.831,3.831,224.322,207.049,197.024
0.046,4.462,3.847,3.847,224.339,207.051,197.013
0.047,4.499,3.868,3.868,224.376,207.049,197.012
0.049,4.557,3.891,3.891,224.432,207.040,197.022
0.050,4.634,3.912,3.912,224.506,207.027,197.041
0.051,4.730,3.929,3.929,224.596,207.009,197.068
0.053,4.841,3.942,3.942,224.699,206.988,197.102
0.054,4.965,3.953,3.953,224.815,206.965,197.139
0.056,5.100,3.964,3.964,224.941,206.940,197.180
0.057,5.243,3.977,3.977,225.076,206.914,197.222
0.059,5.392,3.994,3.994,225.216,206.887,197.264
0.060,5.545,4.018,4.018,225.362,206.862,197.304
0.062,5.699,4.048,4.048,225.509,206.838,197.340
0.063,5.852,4.086,4.086,225.658,206.816,197.372
0.065,6.004,4.126,4.126,225.806,206.796,197.400
0.066,6.151,4.167,4.167,225.950,206.779,197.423
0.068,6.293,4.206,4.206,226.090,206.764,197.442
0.069,6.428,4.240,4.240,226.223,206.752,197.457
0.071,6.554,4.266,4.266,226.348,206.742,197.470
0.072,6.668,4.281,4.281,226.462,206.735,197.479
0.074,6.771,4.288,4.288,226.565,206.730,197.485
0.075,6.859,4.287,4.287,226.653,206.729,197.489
0.076,6.932,4.281,4.281,226.725,206.730,197.490
0.078,6.987,4.271,4.271,226.780,206.734,197.490
0.079,7.025,4.260,4.260,226.818,206.741,197.488
0.081,7.050,4.249,4.249,226.841,206.748,197.485
0.082,7.063,4.241,4.241,226.852,206.756,197.482
0.084,7.071,4.235,4.235,226.852,206.763,197.479
0.085,7.081,4.232,4.232,226.843,206.767,197.477
0.087,7.096,4.232,4.232,226.828,206.769,197.476
0.088,7.116,4.236,4.236,226.809,206.766,197.476
0.090,7.139,4.244,4.244,226.787,206.758,197.479
0.091,7.166,4.256,4.256,226.765,206.744,197.484
0.093,7.197,4.273,4.273,226.745,206.723,197.493
0.094,7.232,4.293,4.293,226.728,206.694,197.506
0.096,7.273,4.314,4.314,226.717,206.658,197.519
0.097,7.317,4.335,4.335,226.711,206.615,197.533
0.099,7.366,4.355,4.355,226.713,206.569,197.546
0.100,7.419,4.372,4.372,226.725,206.518,197.554
0.101,7.476,4.386,4.386,226.746,206.464,197.558
0.103,7.541,4.395,4.395,226.778,206.409,197.555
0.104,7.614,4.400,4.400,226.824,206.353,197.544
0.106,7.698,4.401,4.401,226.883,206.297,197.522
0.107,7.796,4.398,4.398,226.958,206.243,197.489
0.109,7.910,4.394,4.394,227.048,206.191,197.443
0.110,8.040,4.387,4.387,227.153,206.141,197.385
0.112,8.180,4.378,4.378,227.268,206.094,197.318
0.113,8.328,4.369,4.369,227.389,206.051,197.246
0.115,8.479,4.358,4.358,227.513,206.010,197.170
0.116,8.629,4.347,4.347,227.636,205.972,197.095
0.118,8.772,4.336,4.336,227.755,205.937,197.022
0.119,8.904,4.326,4.326,227.864,205.906,196.955
0.121,9.021,4.315,4.315,227.962,205.878,196.897
0.122,9.119,4.306,4.306,228.044,205.853,196.850
0.124,9.192,4.298,4.298,228.106,205.832,196.818
0.125,9.240,4.290,4.290,228.148,205.815,196.801
0.126,9.270,4.284,4.284,228.173,205.800,196.795
0.128,9.288,4.279,4.279,228.186,205.789,196.798
0.129,9.301,4.275,4.275,228.192,205.779,196.805
0.131,9.313,4.272,4.272,228.194,205.772,196.814
0.132,9.322,4.271,4.271,228.198,205.766,196.820
0.134,9.332,4.270,4.270,228.207,205.761,196.821
0.135,9.354,4.271,4.271,228.226,205.757,196.812
0.137,9.394,4.272,4.272,228.259,205.753,196.790
0.138,9.459,4.273,4.273,228.312,205.749,196.751
0.140,9.554,4.275,4.275,228.387,205.745,196.694
0.141,9.675,4.277,4.277,228.484,205.739,196.621
0.143,9.818,4.279,4.279,228.600,205.731,196.539
0.144,9.978,4.279,4.279,228.735,205.719,196.454
0.146,10.150,4.276,4.276,228.885,205.703,196.372
0.147,10.329,4.269,4.269,229.048,205.681,196.299
0.149,10.515,4.255,4.255,229.222,205.652,196.243
0.150,10.705,4.234,4.234,229.405,205.615,196.208
0.151,10.900,4.203,4.203,229.595,205.570,196.202
0.153,11.103,4.162,4.162,229.789,205.515,196.229
0.154,11.321,4.114,4.114,229.985,205.449,196.297
0.156,11.559,4.065,4.065,230.182,205.373,196.407
0.157,11.818,4.017,4.017,230.379,205.286,196.551
0.159,12.096,3.977,3.977,230.574,205.192,196.725
0.160,12.388,3.948,3.948,230.767,205.090,196.919
0.162,12.691,3.935,3.935,230.956,204.983,197.129
0.163,12.998,3.941,3.941,231.142,204.872,197.348
0.165,13.305,3.962,3.962,231.322,204.758,197.568
0.166,13.605,3.996,3.996,231.497,204.643,197.784
0.168,13.893,4.038,4.038,231.664,204.528,197.988
0.169,14.163,4.086,4.086,231.824,204.414,198.174
0.171,14.411,4.135,4.135,231.975,204.302,198.336
0.172,14.640,4.182,4.182,232.119,204.192,198.475
0.174,14.854,4.225,4.225,232.258,204.082,198.595
0.175,15.058,4.266,4.266,232.394,203.970,198.697
0.176,15.256,4.308,4.308,232.528,203.854,198.786
0.178,15.454,4.355,4.355,232.664,203.732,198.863
0.179,15.655,4.408,4.408,232.803,203.604,198.931
0.181,15.863,4.471,4.471,232.946,203.467,198.994
0.182,16.082,4.546,4.546,233.097,203.319,199.054
0.184,16.316,4.634,4.634,233.256,203.160,199.114
0.185,16.567,4.733,4.733,233.426,202.987,199.177
0.187,16.834,4.842,4.842,233.606,202.801,199.244
0.188,17.112,4.959,4.959,233.793,202.606,199.313
0.190,17.396,5.082,5.082,233.982,202.406,199.384
0.191,17.679,5.208,5.208,234.169,202.205,199.454
0.193,17.957,5.335,5.335,234.350,202.007,199.523
0.194,18.223,5.462,5.462,234.523,201.815,199.590
0.196,18.473,5.584,5.584,234.682,201.634,199.653
0.197,18.699,5.698,5.698,234.823,201.467,199.712
0.199,18.898,5.800,5.800,234.944,201.318,199.764
0.200,19.063,5.887,5.887,235.040,201.191,199.808
0.201,19.191,5.954,5.954,235.108,201.089,199.844
0.203,19.286,5.999,5.999,235.151,201.010,199.873
0.204,19.353,6.023,6.023,235.174,200.951,199.897
0.206,19.399,6.031,6.031,235.181,200.909,199.915
0.207,19.432,6.028,6.028,235.177,200.881,199.931
0.209,19.457,6.019,6.019,235.164,200.864,199.946
0.210,19.480,6.010,6.010,235.148,200.856,199.960
0.212,19.502,6.006,6.006,235.134,200.852,199.976
0.213,19.523,6.011,6.011,235.124,200.851,199.995
0.215,19.547,6.024,6.024,235.124,200.849,200.018
0.216,19.579,6.045,6.045,235.138,200.844,200.047
0.218,19.625,6.069,6.069,235.166,200.834,200.082
0.219,19.684,6.095,6.095,235.207,200.819,200.122
0.221,19.754,6.121,6.121,235.258,200.800,200.165
0.222,19.833,6.143,6.143,235.317,200.777,200.212
0.224,19.919,6.159,6.159,235.383,200.751,200.261
0.225,20.009,6.171,6.171,235.453,200.722,200.310
0.226,20.102,6.179,6.179,235.526,200.691,200.360
0.228,20.196,6.184,6.185,235.598,200.657,200.408
0.229,20.287,6.188,6.189,235.668,200.621,200.455
0.231,20.374,6.192,6.192,235.734,200.584,200.498
0.232,20.456,6.197,6.197,235.795,200.546,200.538
0.234,20.533,6.203,6.203,235.851,200.508,200.574
0.235,20.608,6.211,6.211,235.906,200.470,200.607
0.237,20.680,6.220,6.220,235.959,200.432,200.637
0.238,20.751,6.229,6.229,236.015,200.396,200.665
0.240,20.824,6.238,6.238,236.073,200.362,200.692
0.241,20.899,6.246,6.246,236.136,200.330,200.717
0.243,20.978,6.253,6.253,236.206,200.301,200.740
0.244,21.064,6.258,6.258,236.284,200.276,200.764
0.246,21.158,6.261,6.262,236.373,200.255,200.787
0.247,21.262,6.262,6.264,236.473,200.238,200.810
0.249,21.377,6.263,6.265,236.585,200.227,200.834
0.250,21.499,6.263,6.265,236.704,200.219,200.858
0.251,21.625,6.263,6.264,236.828,200.215,200.881
0.253,21.752,6.263,6.262,236.953,200.214,200.904
0.254,21.877,6.262,6.259,237.076,200.216,200.927
0.256,21.997,6.262,6.256,237.194,200.219,200.949
0.257,22.109,6.261,6.253,237.304,200.224,200.969
0.259,22.210,6.259,6.251,237.403,200.230,200.988
0.260,22.296,6.257,6.250,237.487,200.237,201.006
0.262,22.365,6.254,6.250,237.554,200.243,201.022
0.263,22.415,6.249,6.252,237.601,200.248,201.036
0.265,22.450,6.242,6.256,237.634,200.253,201.047
0.266,22.473,6.234,6.260,237.656,200.255,201.054
0.268,22.489,6.222,6.264,237.672,200.255,201.058
0.269,22.504,6.208,6.265,237.686,200.252,201.058
0.271,22.523,6.190,6.263,237.702,200.245,201.052
0.272,22.551,6.169,6.257,237.727,200.234,201.041
0.274,22.594,6.143,6.244,237.762,200.219,201.024
0.275,22.655,6.113,6.226,237.815,200.198,201.000
0.276,22.738,6.079,6.202,237.887,200.172,200.969
0.278,22.849,6.042,6.172,237.985,200.139,200.930
0.279,22.983,6.003,6.138,238.106,200.100,200.885
0.281,23.137,5.961,6.099,238.245,200.057,200.834
0.282,23.305,5.918,6.057,238.397,200.010,200.780
0.284,23.482,5.874,6.011,238.557,199.962,200.724
0.285,23.661,5.830,5.962,238.720,199.912,200.669
0.287,23.838,5.788,5.914,238.882,199.863,200.617
0.288,24.007,5.748,5.867,239.037,199.815,200.568
0.290,24.163,5.712,5.824,239.180,199.770,200.525
0.291,24.301,5.682,5.787,239.306,199.730,200.490
0.293,24.414,5.659,5.757,239.411,199.694,200.464
0.294,24.501,5.643,5.736,239.491,199.664,200.448
0.296,24.565,5.635,5.724,239.550,199.640,200.442
0.297,24.609,5.632,5.719,239.589,199.621,200.443
0.299,24.638,5.633,5.720,239.613,199.606,200.451
0.300,24.657,5.636,5.727,239.624,199.596,200.463
0.301,24.675,5.640,5.738,239.625,199.589,200.480
0.303,24.695,5.643,5.751,239.619,199.585,200.498
0.304,24.716,5.643,5.766,239.610,199.584,200.517
0.306,24.737,5.642,5.781,239.599,199.585,200.536
0.307,24.756,5.638,5.796,239.591,199.588,200.552
0.309,24.771,5.634,5.810,239.588,199.592,200.566
0.310,24.782,5.630,5.822,239.591,199.596,200.576
0.312,24.793,5.626,5.831,239.598,199.600,200.582
0.313,24.807,5.622,5.836,239.612,199.603,200.586
0.315,24.825,5.620,5.837,239.630,199.605,200.586
0.316,24.848,5.618,5.833,239.653,199.604,200.584
0.318,24.876,5.616,5.823,239.680,199.600,200.580
0.319,24.909,5.611,5.809,239.711,199.593,200.573
0.321,24.947,5.604,5.789,239.747,199.581,200.563
0.322,24.991,5.592,5.764,239.786,199.564,200.552
0.324,25.041,5.576,5.733,239.828,199.541,200.539
0.325,25.097,5.554,5.697,239.874,199.513,200.525
0.326,25.157,5.526,5.658,239.923,199.480,200.510
0.328,25.222,5.493,5.619,239.976,199.446,200.495
0.329,25.290,5.457,5.582,240.032,199.411,200.480
0.331,25.361,5.416,5.550,240.093,199.379,200.466
0.332,25.433,5.371,5.525,240.157,199.349,200.453
0.334,25.506,5.324,5.511,240.226,199.326,200.443
0.335,25.582,5.274,5.506,240.300,199.309,200.435
0.337,25.661,5.224,5.507,240.378,199.302,200.430
0.338,25.744,5.175,5.511,240.461,199.306,200.429
0.340,25.834,5.128,5.513,240.550,199.321,200.433
0.341,25.933,5.084,5.510,240.646,199.344,200.437
0.343,26.044,5.046,5.498,240.754,199.368,200.438
0.344,26.169,5.014,5.473,240.878,199.385,200.431
0.346,26.312,4.987,5.433,241.020,199.388,200.412
0.347,26.482,4.961,5.377,241.185,199.371,200.377
0.349,26.686,4.932,5.307,241.377,199.327,200.322
0.350,26.933,4.894,5.223,241.597,199.248,200.242
0.351,27.235,4.844,5.123,241.852,199.128,200.134
0.353,27.600,4.777,5.010,242.143,198.961,199.992
0.354,28.038,4.688,4.883,242.475,198.738,199.813
0.356,28.548,4.582,4.748,242.845,198.461,199.598
0.357,29.114,4.468,4.615,243.243,198.141,199.354
0.359,29.719,4.353,4.496,243.660,197.790,199.091
0.360,30.346,4.248,4.400,244.086,197.420,198.817
0.362,30.977,4.162,4.338,244.508,197.042,198.540
0.363,31.594,4.103,4.320,244.919,196.668,198.270
0.365,32.181,4.079,4.356,245.307,196.310,198.014
0.366,32.718,4.090,4.440,245.662,195.981,197.781
0.368,33.189,4.128,4.557,245.974,195.690,197.580
0.369,33.576,4.186,4.694,246.232,195.452,197.420
0.371,33.864,4.258,4.837,246.429,195.274,197.306
0.372,34.061,4.335,4.972,246.568,195.153,197.237
0.374,34.180,4.411,5.086,246.657,195.081,197.206
0.375,34.235,4.481,5.167,246.704,195.052,197.208
0.376,34.266,4.541,5.216,246.716,195.056,197.236
0.378,34.326,4.592,5.240,246.699,195.086,197.285
0.379,34.414,4.634,5.244,246.663,195.134,197.348
0.381,34.519,4.667,5.236,246.614,195.193,197.421
0.382,34.632,4.691,5.222,246.560,195.256,197.497
0.384,34.739,4.706,5.208,246.507,195.313,197.570
0.385,34.828,4.711,5.199,246.465,195.358,197.635
0.387,34.896,4.709,5.199,246.437,195.388,197.689
0.388,34.943,4.703,5.207,246.424,195.403,197.732
0.390,34.977,4.693,5.226,246.429,195.404,197.766
0.391,35.013,4.683,5.256,246.452,195.394,197.791
0.393,35.063,4.675,5.299,246.495,195.374,197.808
0.394,35.135,4.671,5.357,246.560,195.344,197.817
0.396,35.230,4.672,5.427,246.647,195.307,197.820
0.397,35.350,4.680,5.505,246.758,195.264,197.818
0.399,35.495,4.695,5.584,246.896,195.216,197.810
0.400,35.667,4.718,5.657,247.060,195.165,197.799
0.401,35.866,4.750,5.718,247.251,195.112,197.784
0.403,36.087,4.792,5.760,247.465,195.058,197.767
0.404,36.324,4.844,5.776,247.694,195.003,197.749
0.406,36.570,4.906,5.764,247.934,194.950,197.730
0.407,36.819,4.975,5.731,248.177,194.898,197.711
0.409,37.066,5.047,5.683,248.417,194.848,197.694
0.410,37.303,5.120,5.629,248.649,194.802,197.678
0.412,37.524,5.191,5.576,248.866,194.761,197.665
0.413,37.723,5.255,5.530,249.062,194.724,197.656
0.415,37.895,5.310,5.500,249.231,194.694,197.652
0.416,38.032,5.355,5.489,249.366,194.670,197.653
0.418,38.136,5.390,5.491,249.468,194.653,197.659
0.419,38.210,5.417,5.504,249.541,194.643,197.669
0.421,38.260,5.436,5.524,249.589,194.637,197.682
0.422,38.291,5.449,5.545,249.616,194.634,197.697
0.424,38.310,5.456,5.565,249.628,194.635,197.712
0.425,38.325,5.459,5.579,249.628,194.637,197.727
0.426,38.340,5.459,5.587,249.622,194.641,197.739
0.428,38.353,5.457,5.589,249.614,194.644,197.749
0.429,38.361,5.454,5.589,249.608,194.645,197.755
0.431,38.362,5.453,5.587,249.609,194.645,197.755
0.432,38.375,5.455,5.586,249.620,194.641,197.749
0.434,38.399,5.461,5.587,249.641,194.635,197.740
0.435,38.430,5.472,5.593,249.669,194.627,197.729
0.437,38.469,5.488,5.603,249.705,194.617,197.719
0.438,38.512,5.507,5.616,249.746,194.606,197.713
0.440,38.558,5.526,5.629,249.791,194.595,197.714
0.441,38.608,5.544,5.643,249.839,194.584,197.723
0.443,38.662,5.558,5.655,249.888,194.573,197.743
0.444,38.722,5.566,5.664,249.937,194.564,197.777
0.446,38.792,5.566,5.668,249.985,194.556,197.826
0.447,38.874,5.558,5.667,250.030,194.550,197.895
0.449,38.969,5.545,5.661,250.071,194.547,197.980
0.450,39.074,5.526,5.650,250.109,194.546,198.079
0.451,39.188,5.504,5.633,250.142,194.548,198.187
0.453,39.305,5.479,5.611,250.172,194.552,198.301
0.454,39.423,5.453,5.583,250.197,194.558,198.416
0.456,39.539,5.426,5.549,250.217,194.567,198.529
0.457,39.647,5.400,5.511,250.232,194.578,198.636
0.459,39.746,5.376,5.472,250.242,194.591,198.733
0.460,39.831,5.354,5.433,250.247,194.606,198.817
0.462,39.899,5.335,5.397,250.246,194.624,198.882
0.463,39.949,5.320,5.367,250.240,194.644,198.928
0.465,39.985,5.310,5.343,250.230,194.664,198.956
0.466,40.010,5.305,5.329,250.218,194.682,198.969
0.468,40.030,5.303,5.324,250.206,194.697,198.970
0.469,40.046,5.304,5.326,250.197,194.708,198.962
0.471,40.063,5.306,5.334,250.191,194.712,198.947
0.472,40.082,5.307,5.349,250.191,194.708,198.929
0.474,40.107,5.307,5.368,250.199,194.693,198.909
0.475,40.143,5.302,5.391,250.216,194.667,198.892
0.476,40.193,5.294,5.417,250.245,194.628,198.879
0.478,40.262,5.283,5.444,250.287,194.574,198.874
0.479,40.351,5.271,5.469,250.344,194.506,198.877
0.481,40.458,5.261,5.492,250.416,194.427,198.888
0.482,40.584,5.255,5.509,250.504,194.339,198.908
0.484,40.726,5.255,5.520,250.608,194.246,198.937
0.485,40.885,5.263,5.522,250.729,194.150,198.975
0.487,41.061,5.278,5.514,250.867,194.053,199.022
0.488,41.253,5.298,5.498,251.024,193.958,199.077
0.490,41.461,5.320,5.475,251.200,193.868,199.142
0.491,41.686,5.339,5.446,251.396,193.786,199.216
0.493,41.928,5.354,5.413,251.612,193.714,199.300
0.494,42.188,5.359,5.378,251.847,193.653,199.392
0.496,42.462,5.353,5.341,252.098,193.604,199.492
0.497,42.747,5.333,5.304,252.360,193.567,199.597
0.499,43.038,5.303,5.267,252.629,193.540,199.706
0.500,43.332,5.266,5.230,252.901,193.524,199.817
0.501,43.624,5.222,5.194,253.171,193.517,199.928
0.503,43.911,5.176,5.159,253.435,193.520,200.038
0.504,44.186,5.130,5.125,253.688,193.533,200.146
0.506,44.447,5.086,5.092,253.928,193.553,200.248
0.507,44.690,5.044,5.061,254.148,193.582,200.344
0.509,44.909,5.007,5.031,254.346,193.619,200.431
0.510,45.106,4.972,5.003,254.521,193.662,200.511
0.512,45.283,4.941,4.976,254.675,193.710,200.582
0.513,45.440,4.913,4.950,254.809,193.762,200.647
0.515,45.580,4.888,4.925,254.925,193.816,200.704
0.516,45.704,4.866,4.901,255.024,193.870,200.754
0.518,45.813,4.848,4.878,255.108,193.924,200.799
0.519,45.908,4.832,4.857,255.179,193.975,200.837
0.521,45.990,4.819,4.837,255.237,194.022,200.871
0.522,46.060,4.809,4.820,255.285,194.063,200.899
0.524,46.117,4.801,4.806,255.324,194.098,200.923
0.525,46.164,4.795,4.795,255.356,194.125,200.943
0.526,46.202,4.791,4.788,255.382,194.146,200.961
0.528,46.233,4.788,4.784,255.404,194.162,200.976
0.529,46.259,4.785,4.781,255.423,194.173,200.992
0.531,46.285,4.781,4.778,255.441,194.181,201.008
0.532,46.311,4.775,4.773,255.460,194.187,201.025
0.534,46.340,4.766,4.766,255.480,194.192,201.046
0.535,46.374,4.754,4.754,255.503,194.197,201.070
0.537,46.416,4.737,4.737,255.532,194.204,201.099
0.538,46.466,4.716,4.715,255.567,194.213,201.135
0.540,46.528,4.692,4.689,255.610,194.225,201.177
0.541,46.600,4.666,4.662,255.661,194.241,201.226
0.543,46.682,4.638,4.634,255.719,194.258,201.281
0.544,46.773,4.610,4.607,255.784,194.277,201.342
0.546,46.871,4.582,4.582,255.855,194.296,201.406
0.547,46.976,4.555,4.560,255.933,194.313,201.475
0.549,47.087,4.528,4.540,256.016,194.329,201.546
0.550,47.203,4.499,4.520,256.105,194.343,201.620
0.551,47.323,4.467,4.501,256.198,194.352,201.695
0.553,47.446,4.432,4.481,256.295,194.357,201.771
0.554,47.573,4.391,4.459,256.396,194.357,201.847
0.556,47.702,4.343,4.434,256.500,194.350,201.923
0.557,47.833,4.288,4.405,256.606,194.338,201.999
0.559,47.967,4.229,4.372,256.714,194.321,202.077
0.560,48.102,4.167,4.334,256.821,194.300,202.157
0.562,48.240,4.104,4.292,256.928,194.275,202.240
0.563,48.379,4.045,4.244,257.033,194.246,202.326
0.565,48.520,3.990,4.191,257.135,194.214,202.418
0.566,48.662,3.941,4.132,257.233,194.180,202.515
0.568,48.805,3.901,4.069,257.327,194.144,202.617
0.569,48.951,3.867,4.003,257.414,194.107,202.727
0.571,49.099,3.839,3.937,257.496,194.069,202.845
0.572,49.251,3.813,3.875,257.576,194.030,202.969
0.574,49.409,3.789,3.819,257.658,193.992,203.099
0.575,49.575,3.764,3.772,257.748,193.955,203.233
0.576,49.749,3.739,3.736,257.850,193.919,203.369
0.578,49.935,3.712,3.712,257.969,193.886,203.508
0.579,50.136,3.687,3.701,258.111,193.855,203.647
0.581,50.356,3.667,3.701,258.279,193.827,203.785
0.582,50.600,3.654,3.712,258.480,193.803,203.921
0.584,50.873,3.651,3.732,258.718,193.784,204.054
0.585,51.181,3.662,3.762,258.998,193.770,204.183
0.587,51.523,3.688,3.801,259.316,193.761,204.305
0.588,51.890,3.729,3.848,259.665,193.756,204.422
0.590,52.273,3.784,3.902,260.032,193.755,204.532
0.591,52.662,3.850,3.963,260.408,193.757,204.633
0.593,53.048,3.924,4.031,260.782,193.761,204.727
0.594,53.419,4.004,4.105,261.143,193.767,204.811
0.596,53.767,4.089,4.185,261.483,193.773,204.885
0.597,54.080,4.174,4.269,261.789,193.780,204.949
0.599,54.348,4.258,4.356,262.052,193.787,205.001
0.600,54.562,4.337,4.440,262.262,193.792,205.041
