"T","Distance","Radius","FreeRadius","X","Y","Z"
0.000,0.000,1.272,1.272,79.237,-52.118,-2.096
0.001,0.242,1.373,1.373,79.070,-52.191,-2.256
0.003,0.483,1.474,1.474,78.904,-52.262,-2.415
0.004,0.719,1.576,1.576,78.742,-52.333,-2.571
0.005,0.950,1.679,1.679,78.583,-52.402,-2.724
0.007,1.174,1.784,1.784,78.430,-52.470,-2.873
0.008,1.388,1.892,1.892,78.284,-52.534,-3.015
0.009,1.591,2.002,2.002,78.146,-52.595,-3.151
0.011,1.780,2.115,2.115,78.018,-52.653,-3.278
0.012,1.955,2.230,2.230,77.900,-52.706,-3.397
0.014,2.113,2.343,2.343,77.796,-52.754,-3.504
0.015,2.252,2.451,2.451,77.705,-52.797,-3.601
0.016,2.371,2.549,2.549,77.629,-52.835,-3.684
0.018,2.468,2.634,2.634,77.569,-52.866,-3.754
0.019,2.544,2.702,2.702,77.525,-52.890,-3.811
0.020,2.601,2.750,2.750,77.494,-52.910,-3.855
0.022,2.641,2.775,2.775,77.475,-52.924,-3.887
0.023,2.666,2.781,2.781,77.467,-52.933,-3.909
0.024,2.679,2.772,2.772,77.467,-52.938,-3.920
0.026,2.687,2.752,2.752,77.474,-52.939,-3.923
0.027,2.701,2.725,2.725,77.487,-52.936,-3.918
0.028,2.722,2.696,2.696,77.503,-52.931,-3.905
0.030,2.750,2.669,2.669,77.522,-52.922,-3.885
0.031,2.783,2.648,2.648,77.540,-52.912,-3.860
0.032,2.820,2.634,2.634,77.558,-52.900,-3.830
0.034,2.859,2.625,2.625,77.573,-52.887,-3.796
0.035,2.899,2.620,2.620,77.585,-52.874,-3.761
0.036,2.937,2.618,2.618,77.594,-52.862,-3.726
0.038,2.970,2.617,2.617,77.602,-52.853,-3.696
0.039,2.995,2.615,2.615,77.608,-52.848,-3.671
0.041,3.011,2.611,2.611,77.613,-52.849,-3.656
0.042,3.022,2.604,2.604,77.619,-52.858,-3.653
0.043,3.044,2.598,2.598,77.624,-52.876,-3.665
0.045,3.084,2.598,2.598,77.631,-52.903,-3.694
0.046,3.148,2.606,2.606,77.639,-52.943,-3.743
0.047,3.238,2.627,2.627,77.649,-52.996,-3.815
0.049,3.358,2.665,2.665,77.661,-53.064,-3.913
0.050,3.511,2.725,2.725,77.677,-53.149,-4.039
0.051,3.693,2.808,2.808,77.695,-53.247,-4.192
0.053,3.900,2.915,2.915,77.716,-53.358,-4.366
0.054,4.126,3.038,3.038,77.738,-53.476,-4.557
0.055,4.364,3.171,3.171,77.762,-53.598,-4.760
0.057,4.609,3.308,3.308,77.786,-53.722,-4.970
0.058,4.855,3.443,3.443,77.809,-53.843,-5.182
0.059,5.095,3.568,3.568,77.832,-53.958,-5.392
0.061,5.324,3.679,3.679,77.854,-54.064,-5.594
0.062,5.536,3.771,3.771,77.873,-54.157,-5.783
0.064,5.726,3.845,3.845,77.890,-54.233,-5.956
0.065,5.887,3.904,3.904,77.903,-54.290,-6.106
0.066,6.016,3.950,3.950,77.913,-54.324,-6.230
0.068,6.112,3.984,3.984,77.918,-54.334,-6.326
0.069,6.184,4.010,4.010,77.918,-54.325,-6.397
0.070,6.240,4.030,4.030,77.912,-54.300,-6.446
0.072,6.290,4.045,4.045,77.901,-54.262,-6.478
0.073,6.342,4.057,4.057,77.884,-54.216,-6.494
0.074,6.399,4.067,4.067,77.859,-54.165,-6.498
0.076,6.460,4.076,4.076,77.828,-54.112,-6.494
0.077,6.525,4.084,4.084,77.788,-54.062,-6.484
0.078,6.591,4.093,4.093,77.741,-54.018,-6.472
0.080,6.658,4.103,4.103,77.684,-53.983,-6.461
0.081,6.727,4.115,4.115,77.619,-53.962,-6.455
0.082,6.802,4.130,4.130,77.544,-53.958,-6.456
0.084,6.888,4.146,4.146,77.459,-53.973,-6.466
0.085,6.990,4.163,4.163,77.365,-54.006,-6.486
0.086,7.107,4.179,4.179,77.263,-54.056,-6.515
0.088,7.242,4.193,4.193,77.153,-54.122,-6.554
0.089,7.393,4.205,4.205,77.035,-54.204,-6.601
0.091,7.560,4.213,4.213,76.911,-54.300,-6.658
0.092,7.743,4.216,4.216,76.780,-54.410,-6.724
0.093,7.941,4.216,4.216,76.644,-54.532,-6.799
0.095,8.153,4.215,4.215,76.503,-54.666,-6.883
0.096,8.378,4.214,4.214,76.357,-54.811,-6.975
0.097,8.616,4.215,4.215,76.207,-54.966,-7.076
0.099,8.865,4.220,4.220,76.054,-55.129,-7.185
0.100,9.124,4.232,4.232,75.899,-55.301,-7.303
0.101,9.393,4.251,4.251,75.741,-55.477,-7.429
0.103,9.668,4.280,4.280,75.581,-55.657,-7.562
0.104,9.948,4.316,4.316,75.420,-55.839,-7.701
0.105,10.231,4.359,4.359,75.257,-56.019,-7.847
0.107,10.516,4.406,4.406,75.094,-56.196,-7.999
0.108,10.800,4.456,4.456,74.930,-56.368,-8.155
0.109,11.083,4.508,4.508,74.766,-56.533,-8.316
0.111,11.363,4.560,4.560,74.603,-56.688,-8.482
0.112,11.637,4.610,4.610,74.440,-56.832,-8.650
0.114,11.907,4.659,4.659,74.278,-56.962,-8.822
0.115,12.169,4.710,4.710,74.118,-57.076,-8.996
0.116,12.425,4.764,4.764,73.960,-57.172,-9.172
0.118,12.673,4.822,4.822,73.804,-57.252,-9.348
0.119,12.914,4.887,4.887,73.652,-57.318,-9.523
0.120,13.147,4.961,4.961,73.504,-57.372,-9.695
0.122,13.372,5.044,5.044,73.360,-57.414,-9.862
0.123,13.587,5.137,5.137,73.223,-57.447,-10.024
0.124,13.791,5.237,5.237,73.091,-57.472,-10.178
0.126,13.983,5.341,5.341,72.966,-57.491,-10.323
0.127,14.162,5.444,5.444,72.849,-57.506,-10.458
0.128,14.326,5.543,5.543,72.741,-57.518,-10.580
0.130,14.473,5.636,5.636,72.641,-57.529,-10.688
0.131,14.603,5.717,5.717,72.552,-57.542,-10.782
0.132,14.715,5.786,5.786,72.473,-57.556,-10.859
0.134,14.809,5.840,5.840,72.404,-57.572,-10.921
0.135,14.888,5.883,5.883,72.344,-57.590,-10.969
0.136,14.954,5.916,5.916,72.292,-57.609,-11.006
0.138,15.009,5.941,5.941,72.248,-57.629,-11.032
0.139,15.055,5.959,5.959,72.211,-57.648,-11.050
0.141,15.093,5.971,5.971,72.180,-57.668,-11.061
0.142,15.125,5.980,5.980,72.154,-57.686,-11.067
0.143,15.152,5.987,5.987,72.133,-57.703,-11.071
0.145,15.175,5.992,5.992,72.116,-57.718,-11.072
0.146,15.194,5.996,5.996,72.102,-57.731,-11.074
0.147,15.210,6.000,6.000,72.090,-57.741,-11.077
0.149,15.224,6.003,6.003,72.080,-57.747,-11.084
0.150,15.238,6.007,6.007,72.071,-57.751,-11.094
0.151,15.253,6.012,6.012,72.064,-57.752,-11.107
0.153,15.268,6.019,6.019,72.057,-57.750,-11.121
0.154,15.285,6.027,6.027,72.052,-57.746,-11.137
0.155,15.302,6.035,6.035,72.048,-57.741,-11.152
0.157,15.318,6.043,6.043,72.044,-57.734,-11.166
0.158,15.334,6.049,6.049,72.041,-57.727,-11.180
0.159,15.347,6.054,6.054,72.039,-57.719,-11.190
0.161,15.359,6.055,6.055,72.037,-57.710,-11.198
0.162,15.368,6.053,6.053,72.035,-57.703,-11.202
0.164,15.375,6.047,6.047,72.034,-57.695,-11.201
0.165,15.384,6.039,6.039,72.033,-57.689,-11.195
0.166,15.395,6.029,6.030,72.032,-57.684,-11.185
0.168,15.409,6.020,6.020,72.031,-57.680,-11.171
0.169,15.425,6.012,6.012,72.030,-57.677,-11.157
0.170,15.439,6.006,6.006,72.030,-57.675,-11.142
0.172,15.452,6.005,6.005,72.030,-57.674,-11.129
0.173,15.461,6.008,6.008,72.029,-57.675,-11.120
0.174,15.466,6.015,6.014,72.030,-57.676,-11.116
0.176,15.469,6.025,6.024,72.030,-57.678,-11.118
0.177,15.480,6.036,6.035,72.031,-57.681,-11.129
0.178,15.502,6.047,6.046,72.032,-57.686,-11.150
0.180,15.534,6.056,6.055,72.033,-57.691,-11.182
0.181,15.580,6.063,6.062,72.035,-57.697,-11.228
0.182,15.639,6.065,6.065,72.037,-57.704,-11.286
0.184,15.709,6.063,6.065,72.038,-57.711,-11.355
0.185,15.788,6.057,6.060,72.040,-57.719,-11.435
0.186,15.876,6.049,6.052,72.042,-57.728,-11.522
0.188,15.971,6.038,6.042,72.043,-57.737,-11.616
0.189,16.071,6.027,6.030,72.043,-57.747,-11.716
0.191,16.174,6.015,6.017,72.042,-57.757,-11.818
0.192,16.279,6.003,6.003,72.040,-57.766,-11.922
0.193,16.384,5.992,5.989,72.037,-57.776,-12.027
0.195,16.488,5.982,5.975,72.032,-57.786,-12.130
0.196,16.589,5.973,5.962,72.025,-57.795,-12.231
0.197,16.685,5.965,5.951,72.016,-57.804,-12.327
0.199,16.777,5.956,5.942,72.006,-57.814,-12.417
0.200,16.863,5.946,5.935,71.992,-57.825,-12.502
0.201,16.945,5.936,5.931,71.976,-57.840,-12.580
0.203,17.022,5.925,5.931,71.955,-57.861,-12.652
0.204,17.097,5.912,5.933,71.931,-57.888,-12.717
0.205,17.172,5.894,5.933,71.903,-57.925,-12.776
0.207,17.249,5.872,5.928,71.870,-57.971,-12.827
0.208,17.331,5.841,5.914,71.831,-58.030,-12.870
0.209,17.424,5.802,5.887,71.787,-58.103,-12.906
0.211,17.529,5.751,5.845,71.736,-58.192,-12.934
0.212,17.651,5.688,5.782,71.680,-58.297,-12.953
0.214,17.791,5.611,5.697,71.616,-58.422,-12.963
0.215,17.952,5.523,5.595,71.544,-58.566,-12.966
0.216,18.131,5.427,5.481,71.464,-58.726,-12.965
0.218,18.327,5.324,5.360,71.375,-58.900,-12.963
0.219,18.537,5.219,5.237,71.276,-59.086,-12.965
0.220,18.761,5.114,5.119,71.165,-59.280,-12.972
0.222,18.996,5.011,5.011,71.042,-59.480,-12.991
0.223,19.243,4.914,4.917,70.906,-59.683,-13.023
0.224,19.500,4.824,4.841,70.756,-59.886,-13.073
0.226,19.770,4.742,4.778,70.591,-60.087,-13.144
0.227,20.053,4.667,4.727,70.410,-60.283,-13.240
0.228,20.353,4.601,4.686,70.212,-60.471,-13.364
0.230,20.673,4.542,4.653,69.997,-60.649,-13.520
0.231,21.015,4.493,4.625,69.765,-60.814,-13.710
0.232,21.377,4.452,4.600,69.519,-60.966,-13.927
0.234,21.752,4.419,4.576,69.264,-61.105,-14.166
0.235,22.136,4.396,4.553,69.006,-61.229,-14.420
0.236,22.520,4.379,4.533,68.747,-61.340,-14.682
0.238,22.899,4.369,4.514,68.493,-61.436,-14.946
0.239,23.266,4.364,4.497,68.248,-61.517,-15.206
0.241,23.612,4.364,4.484,68.016,-61.583,-15.456
0.242,23.932,4.368,4.473,67.803,-61.633,-15.689
0.243,24.218,4.375,4.465,67.612,-61.668,-15.898
0.245,24.462,4.384,4.460,67.448,-61.686,-16.078
0.246,24.657,4.395,4.458,67.316,-61.687,-16.222
0.247,24.801,4.407,4.459,67.217,-61.672,-16.325
0.249,24.900,4.420,4.461,67.150,-61.644,-16.393
0.250,24.967,4.433,4.465,67.110,-61.606,-16.431
0.251,25.017,4.446,4.470,67.092,-61.563,-16.447
0.253,25.062,4.458,4.476,67.091,-61.517,-16.446
0.254,25.109,4.469,4.483,67.104,-61.474,-16.434
0.255,25.156,4.479,4.490,67.125,-61.435,-16.418
0.257,25.197,4.487,4.496,67.151,-61.406,-16.405
0.258,25.228,4.495,4.502,67.177,-61.390,-16.400
0.259,25.252,4.501,4.506,67.199,-61.390,-16.411
0.261,25.292,4.506,4.510,67.211,-61.411,-16.442
0.262,25.366,4.510,4.511,67.210,-61.455,-16.502
0.264,25.483,4.513,4.511,67.191,-61.526,-16.593
0.265,25.641,4.515,4.509,67.157,-61.622,-16.715
0.266,25.833,4.517,4.506,67.110,-61.736,-16.861
0.268,26.050,4.518,4.505,67.052,-61.865,-17.025
0.269,26.286,4.520,4.506,66.986,-62.005,-17.204
0.270,26.532,4.523,4.510,66.915,-62.149,-17.391
0.272,26.782,4.527,4.520,66.841,-62.294,-17.580
0.273,27.028,4.533,4.535,66.768,-62.436,-17.767
0.274,27.262,4.541,4.557,66.698,-62.569,-17.946
0.276,27.476,4.550,4.583,66.633,-62.689,-18.111
0.277,27.664,4.561,4.612,66.577,-62.791,-18.258
0.278,27.817,4.572,4.640,66.532,-62.871,-18.381
0.280,27.930,4.583,4.666,66.500,-62.925,-18.475
0.281,28.005,4.594,4.687,66.481,-62.954,-18.542
0.282,28.050,4.605,4.702,66.471,-62.963,-18.584
0.284,28.073,4.614,4.708,66.470,-62.957,-18.607
0.285,28.092,4.622,4.705,66.474,-62.941,-18.614
0.286,28.115,4.628,4.697,66.480,-62.919,-18.610
0.288,28.143,4.634,4.685,66.487,-62.895,-18.597
0.289,28.169,4.638,4.673,66.493,-62.875,-18.581
0.291,28.189,4.642,4.661,66.493,-62.863,-18.564
0.292,28.203,4.644,4.653,66.487,-62.864,-18.552
0.293,28.227,4.646,4.650,66.472,-62.883,-18.548
0.295,28.276,4.648,4.655,66.446,-62.923,-18.555
0.296,28.357,4.649,4.667,66.405,-62.989,-18.578
0.297,28.471,4.652,4.685,66.351,-63.082,-18.617
0.299,28.613,4.657,4.708,66.285,-63.195,-18.670
0.300,28.778,4.665,4.738,66.209,-63.327,-18.736
0.301,28.962,4.676,4.772,66.125,-63.471,-18.811
0.303,29.158,4.691,4.810,66.034,-63.625,-18.894
0.304,29.364,4.711,4.852,65.940,-63.784,-18.983
0.305,29.573,4.736,4.896,65.842,-63.943,-19.076
0.307,29.780,4.765,4.942,65.744,-64.100,-19.171
0.308,29.982,4.796,4.986,65.648,-64.248,-19.267
0.309,30.172,4.829,5.028,65.554,-64.386,-19.360
0.311,30.347,4.862,5.066,65.465,-64.507,-19.449
0.312,30.502,4.895,5.098,65.383,-64.609,-19.532
0.314,30.637,4.926,5.124,65.309,-64.691,-19.609
0.315,30.752,4.955,5.141,65.241,-64.754,-19.679
0.316,30.852,4.983,5.152,65.181,-64.800,-19.742
0.318,30.938,5.008,5.158,65.126,-64.833,-19.800
0.319,31.012,5.031,5.161,65.078,-64.854,-19.853
0.320,31.076,5.053,5.161,65.036,-64.866,-19.900
0.322,31.132,5.073,5.161,64.999,-64.871,-19.942
0.323,31.181,5.092,5.161,64.967,-64.870,-19.979
0.324,31.224,5.109,5.164,64.940,-64.868,-20.012
0.326,31.261,5.124,5.169,64.918,-64.864,-20.041
0.327,31.293,5.138,5.175,64.899,-64.863,-20.066
0.328,31.319,5.151,5.182,64.884,-64.866,-20.088
0.330,31.343,5.161,5.189,64.872,-64.874,-20.107
0.331,31.365,5.170,5.195,64.863,-64.886,-20.123
0.332,31.385,5.177,5.200,64.857,-64.901,-20.136
0.334,31.406,5.183,5.203,64.852,-64.917,-20.146
0.335,31.425,5.186,5.204,64.850,-64.935,-20.155
0.336,31.444,5.188,5.203,64.849,-64.953,-20.161
0.338,31.461,5.189,5.201,64.849,-64.969,-20.165
0.339,31.475,5.189,5.198,64.849,-64.983,-20.167
0.341,31.485,5.189,5.195,64.850,-64.993,-20.167
0.342,31.491,5.189,5.192,64.851,-64.998,-20.167
0.343,31.493,5.189,5.190,64.851,-64.998,-20.165
0.345,31.500,5.190,5.190,64.850,-64.992,-20.162
0.346,31.514,5.192,5.190,64.848,-64.978,-20.158
0.347,31.533,5.194,5.192,64.845,-64.960,-20.154
0.349,31.554,5.196,5.194,64.842,-64.939,-20.151
0.350,31.576,5.198,5.196,64.837,-64.918,-20.149
0.351,31.595,5.200,5.199,64.831,-64.899,-20.149
0.353,31.611,5.201,5.201,64.825,-64.885,-20.152
0.354,31.623,5.201,5.203,64.819,-64.877,-20.158
0.355,31.635,5.201,5.205,64.812,-64.879,-20.168
0.357,31.656,5.201,5.206,64.805,-64.891,-20.183
0.358,31.690,5.202,5.208,64.798,-64.917,-20.203
0.359,31.740,5.204,5.211,64.790,-64.959,-20.229
0.361,31.808,5.209,5.215,64.783,-65.018,-20.262
0.362,31.897,5.217,5.221,64.775,-65.097,-20.302
0.364,32.003,5.229,5.229,64.768,-65.192,-20.349
0.365,32.124,5.245,5.240,64.760,-65.301,-20.402
0.366,32.257,5.266,5.253,64.750,-65.420,-20.460
0.368,32.397,5.289,5.270,64.739,-65.545,-20.523
0.369,32.543,5.314,5.291,64.727,-65.674,-20.591
0.370,32.692,5.339,5.316,64.712,-65.803,-20.663
0.372,32.840,5.365,5.345,64.694,-65.929,-20.738
0.373,32.984,5.389,5.380,64.673,-66.049,-20.815
0.374,33.123,5.411,5.419,64.649,-66.159,-20.895
0.376,33.253,5.430,5.464,64.621,-66.257,-20.977
0.377,33.374,5.447,5.511,64.589,-66.339,-21.059
0.378,33.485,5.464,5.560,64.553,-66.403,-21.142
0.380,33.587,5.481,5.609,64.513,-66.449,-21.225
0.381,33.683,5.499,5.655,64.471,-66.480,-21.305
0.382,33.773,5.520,5.698,64.429,-66.496,-21.383
0.384,33.857,5.543,5.736,64.387,-66.500,-21.456
0.385,33.935,5.569,5.766,64.349,-66.493,-21.524
0.386,34.007,5.598,5.791,64.313,-66.477,-21.585
0.388,34.073,5.626,5.810,64.283,-66.454,-21.638
0.389,34.130,5.651,5.825,64.260,-66.425,-21.682
0.391,34.180,5.672,5.837,64.244,-66.393,-21.716
0.392,34.221,5.686,5.847,64.238,-66.358,-21.738
0.393,34.258,5.691,5.856,64.242,-66.323,-21.748
0.395,34.296,5.684,5.865,64.258,-66.289,-21.744
0.396,34.339,5.667,5.874,64.284,-66.258,-21.729
0.397,34.386,5.642,5.882,64.315,-66.230,-21.706
0.399,34.434,5.613,5.889,64.347,-66.208,-21.680
0.400,34.478,5.581,5.893,64.379,-66.192,-21.652
0.401,34.515,5.551,5.894,64.405,-66.184,-21.628
0.403,34.540,5.526,5.890,64.422,-66.185,-21.609
0.404,34.555,5.508,5.881,64.426,-66.197,-21.601
0.405,34.581,5.500,5.867,64.414,-66.220,-21.605
0.407,34.634,5.502,5.850,64.383,-66.256,-21.627
0.408,34.719,5.513,5.833,64.328,-66.306,-21.668
0.409,34.843,5.533,5.820,64.246,-66.372,-21.733
0.411,35.010,5.561,5.814,64.134,-66.455,-21.825
0.412,35.216,5.597,5.818,63.993,-66.552,-21.941
0.414,35.454,5.641,5.836,63.830,-66.660,-22.077
0.415,35.717,5.691,5.870,63.650,-66.777,-22.229
0.416,35.996,5.745,5.919,63.457,-66.898,-22.390
0.418,36.283,5.801,5.977,63.258,-67.020,-22.557
0.419,36.571,5.854,6.036,63.056,-67.140,-22.724
0.420,36.852,5.902,6.092,62.858,-67.254,-22.887
0.422,37.118,5.942,6.137,62.668,-67.358,-23.041
0.423,37.361,5.969,6.166,62.492,-67.451,-23.181
0.424,37.574,5.981,6.172,62.335,-67.527,-23.302
0.426,37.748,5.976,6.151,62.202,-67.583,-23.400
0.427,37.877,5.957,6.109,62.099,-67.617,-23.470
0.428,37.964,5.928,6.051,62.024,-67.631,-23.512
0.430,38.018,5.893,5.986,61.974,-67.631,-23.531
0.431,38.048,5.858,5.919,61.944,-67.624,-23.530
0.432,38.072,5.826,5.858,61.930,-67.616,-23.513
0.434,38.100,5.801,5.809,61.927,-67.614,-23.485
0.435,38.137,5.788,5.779,61.932,-67.624,-23.449
0.436,38.186,5.786,5.768,61.939,-67.653,-23.411
0.438,38.253,5.794,5.771,61.944,-67.708,-23.373
0.439,38.345,5.807,5.785,61.942,-67.794,-23.340
0.441,38.474,5.823,5.806,61.930,-67.920,-23.316
0.442,38.647,5.839,5.827,61.903,-68.090,-23.306
0.443,38.874,5.852,5.847,61.857,-68.312,-23.312
0.445,39.155,5.858,5.859,61.791,-68.585,-23.337
0.446,39.482,5.857,5.861,61.708,-68.898,-23.377
0.447,39.843,5.849,5.855,61.614,-69.244,-23.429
0.449,40.230,5.839,5.844,61.511,-69.611,-23.490
0.450,40.629,5.827,5.832,61.404,-69.990,-23.559
0.451,41.032,5.816,5.820,61.296,-70.371,-23.630
0.453,41.428,5.810,5.812,61.192,-70.746,-23.703
0.454,41.805,5.810,5.810,61.095,-71.103,-23.773
0.455,42.152,5.819,5.818,61.010,-71.434,-23.838
0.457,42.461,5.836,5.835,60.940,-71.729,-23.896
0.458,42.719,5.861,5.860,60.889,-71.977,-23.942
0.459,42.917,5.890,5.890,60.861,-72.171,-23.974
0.461,43.052,5.924,5.924,60.856,-72.305,-23.992
0.462,43.137,5.959,5.960,60.870,-72.388,-23.998
0.464,43.185,5.995,5.997,60.897,-72.427,-23.994
0.465,43.221,6.029,6.031,60.932,-72.431,-23.984
0.466,43.268,6.059,6.062,60.969,-72.407,-23.969
0.468,43.326,6.085,6.087,61.002,-72.362,-23.952
0.469,43.389,6.104,6.106,61.027,-72.306,-23.937
0.470,43.451,6.113,6.115,61.038,-72.246,-23.926
0.472,43.508,6.113,6.114,61.029,-72.190,-23.921
0.473,43.564,6.100,6.100,60.995,-72.145,-23.926
0.474,43.635,6.072,6.072,60.930,-72.121,-23.943
0.476,43.741,6.029,6.029,60.830,-72.124,-23.974
0.477,43.891,5.973,5.972,60.691,-72.159,-24.021
0.478,44.083,5.907,5.907,60.520,-72.222,-24.081
0.480,44.309,5.838,5.837,60.324,-72.308,-24.153
0.481,44.562,5.769,5.769,60.108,-72.413,-24.232
0.482,44.833,5.705,5.705,59.880,-72.532,-24.317
0.484,45.113,5.651,5.651,59.646,-72.659,-24.405
0.485,45.395,5.611,5.611,59.413,-72.790,-24.493
0.486,45.669,5.589,5.589,59.187,-72.920,-24.578
0.488,45.927,5.580,5.580,58.976,-73.045,-24.657
0.489,46.160,5.582,5.582,58.785,-73.158,-24.729
0.491,46.360,5.592,5.592,58.621,-73.256,-24.790
0.492,46.518,5.606,5.606,58.492,-73.333,-24.837
0.493,46.628,5.621,5.621,58.401,-73.387,-24.869
0.495,46.697,5.633,5.633,58.344,-73.420,-24.888
0.496,46.730,5.641,5.641,58.315,-73.435,-24.896
0.497,46.737,5.643,5.643,58.309,-73.436,-24.896
0.499,46.751,5.641,5.641,58.319,-73.428,-24.891
0.500,46.779,5.636,5.636,58.341,-73.413,-24.883
0.501,46.812,5.629,5.629,58.367,-73.396,-24.874
0.503,46.843,5.622,5.622,58.393,-73.379,-24.867
0.504,46.866,5.615,5.615,58.413,-73.368,-24.865
0.505,46.875,5.611,5.611,58.420,-73.365,-24.871
0.507,46.896,5.610,5.610,58.409,-73.374,-24.886
0.508,46.947,5.611,5.610,58.374,-73.399,-24.914
0.509,47.035,5.613,5.613,58.311,-73.443,-24.957
0.511,47.158,5.617,5.617,58.222,-73.506,-25.012
0.512,47.311,5.621,5.621,58.109,-73.588,-25.076
0.514,47.491,5.625,5.624,57.978,-73.688,-25.148
0.515,47.693,5.627,5.627,57.832,-73.805,-25.224
0.516,47.913,5.629,5.629,57.675,-73.939,-25.301
0.518,48.148,5.629,5.629,57.511,-74.089,-25.378
0.519,48.395,5.626,5.627,57.342,-74.254,-25.449
0.520,48.649,5.622,5.623,57.175,-74.434,-25.514
0.522,48.909,5.616,5.617,57.011,-74.628,-25.569
0.523,49.172,5.607,5.608,56.855,-74.836,-25.612
0.524,49.437,5.595,5.596,56.710,-75.056,-25.639
0.526,49.703,5.581,5.581,56.581,-75.288,-25.648
0.527,49.970,5.565,5.563,56.467,-75.530,-25.641
0.528,50.238,5.548,5.545,56.367,-75.777,-25.619
0.530,50.505,5.532,5.528,56.279,-76.027,-25.585
0.531,50.770,5.518,5.514,56.202,-76.276,-25.541
0.532,51.029,5.510,5.506,56.135,-76.521,-25.490
0.534,51.280,5.507,5.504,56.076,-76.759,-25.433
0.535,51.519,5.512,5.512,56.024,-76.985,-25.374
0.536,51.744,5.527,5.530,55.978,-77.197,-25.315
0.538,51.951,5.549,5.557,55.936,-77.391,-25.257
0.539,52.136,5.577,5.591,55.897,-77.564,-25.204
0.541,52.296,5.608,5.628,55.860,-77.712,-25.157
0.542,52.428,5.640,5.667,55.823,-77.833,-25.120
0.543,52.533,5.671,5.704,55.786,-77.927,-25.091
0.545,52.613,5.699,5.738,55.749,-77.996,-25.071
0.546,52.674,5.720,5.764,55.714,-78.044,-25.058
0.547,52.719,5.735,5.783,55.680,-78.073,-25.051
0.549,52.754,5.744,5.794,55.648,-78.086,-25.050
0.550,52.784,5.748,5.800,55.619,-78.086,-25.052
0.551,52.813,5.749,5.801,55.592,-78.076,-25.059
0.553,52.843,5.747,5.798,55.569,-78.058,-25.067
0.554,52.874,5.744,5.793,55.550,-78.035,-25.077
0.555,52.905,5.741,5.786,55.535,-78.011,-25.088
0.557,52.932,5.738,5.778,55.526,-77.987,-25.098
0.558,52.954,5.737,5.770,55.521,-77.967,-25.107
0.559,52.971,5.736,5.763,55.521,-77.953,-25.114
0.561,52.983,5.736,5.756,55.525,-77.942,-25.119
0.562,52.991,5.736,5.749,55.530,-77.937,-25.123
0.564,52.998,5.737,5.744,55.537,-77.936,-25.126
0.565,53.005,5.738,5.740,55.542,-77.940,-25.127
