"T","Distance","Radius","FreeRadius","X","Y","Z"
0.000,0.000,3.268,3.268,154.016,13.975,229.952
0.002,0.177,3.314,3.314,154.171,13.895,229.924
0.003,0.351,3.360,3.360,154.323,13.816,229.893
0.005,0.518,3.404,3.404,154.467,13.739,229.858
0.006,0.676,3.447,3.447,154.601,13.667,229.817
0.008,0.822,3.489,3.489,154.720,13.599,229.767
0.009,0.955,3.527,3.527,154.821,13.537,229.706
0.011,1.076,3.564,3.564,154.901,13.482,229.633
0.012,1.190,3.597,3.597,154.955,13.436,229.544
0.014,1.305,3.629,3.629,154.981,13.399,229.439
0.015,1.432,3.661,3.661,154.974,13.373,229.314
0.017,1.583,3.694,3.694,154.935,13.358,229.169
0.018,1.759,3.729,3.729,154.867,13.352,229.008
0.020,1.956,3.768,3.768,154.776,13.353,228.832
0.021,2.172,3.812,3.812,154.669,13.359,228.646
0.023,2.400,3.862,3.862,154.549,13.367,228.451
0.024,2.635,3.916,3.916,154.424,13.375,228.252
0.026,2.873,3.977,3.977,154.298,13.382,228.051
0.027,3.106,4.042,4.042,154.177,13.385,227.851
0.029,3.331,4.113,4.113,154.066,13.381,227.656
0.030,3.542,4.190,4.190,153.971,13.369,227.467
0.032,3.739,4.271,4.271,153.891,13.349,227.289
0.033,3.922,4.353,4.353,153.822,13.323,227.122
0.035,4.091,4.432,4.432,153.758,13.294,226.967
0.036,4.248,4.504,4.504,153.694,13.264,226.827
0.038,4.392,4.563,4.563,153.626,13.236,226.703
0.039,4.527,4.606,4.606,153.548,13.211,226.597
0.041,4.656,4.628,4.628,153.454,13.193,226.510
0.042,4.788,4.629,4.629,153.340,13.183,226.444
0.044,4.934,4.611,4.611,153.200,13.184,226.401
0.045,5.105,4.582,4.582,153.031,13.199,226.381
0.047,5.302,4.546,4.546,152.836,13.225,226.382
0.048,5.519,4.509,4.509,152.622,13.262,226.400
0.050,5.751,4.475,4.475,152.397,13.306,226.430
0.051,5.988,4.451,4.451,152.169,13.356,226.467
0.053,6.223,4.437,4.437,151.944,13.411,226.508
0.054,6.447,4.432,4.432,151.729,13.466,226.546
0.056,6.654,4.434,4.434,151.533,13.521,226.580
0.057,6.833,4.442,4.442,151.363,13.574,226.602
0.059,6.979,4.454,4.454,151.226,13.621,226.610
0.060,7.087,4.469,4.469,151.126,13.663,226.600
0.062,7.166,4.484,4.484,151.060,13.698,226.574
0.063,7.229,4.500,4.500,151.022,13.728,226.534
0.065,7.287,4.515,4.515,151.007,13.753,226.483
0.066,7.350,4.529,4.529,151.008,13.774,226.425
0.068,7.417,4.542,4.542,151.020,13.792,226.361
0.069,7.488,4.554,4.554,151.037,13.808,226.294
0.071,7.558,4.563,4.563,151.053,13.821,226.227
0.073,7.624,4.569,4.569,151.063,13.834,226.163
0.074,7.683,4.573,4.573,151.061,13.845,226.105
0.076,7.740,4.575,4.575,151.044,13.857,226.052
0.077,7.798,4.573,4.573,151.015,13.869,226.003
0.079,7.860,4.569,4.569,150.977,13.881,225.955
0.080,7.928,4.562,4.562,150.934,13.894,225.905
0.082,8.001,4.551,4.551,150.888,13.907,225.850
0.083,8.079,4.539,4.539,150.842,13.920,225.788
0.085,8.164,4.527,4.527,150.799,13.933,225.715
0.086,8.259,4.515,4.515,150.763,13.948,225.630
0.088,8.365,4.506,4.506,150.737,13.963,225.528
0.089,8.486,4.501,4.501,150.723,13.978,225.408
0.091,8.624,4.503,4.503,150.721,13.994,225.271
0.092,8.775,4.511,4.511,150.731,14.009,225.122
0.094,8.934,4.525,4.525,150.749,14.022,224.964
0.095,9.097,4.542,4.542,150.773,14.031,224.803
0.097,9.259,4.560,4.560,150.802,14.036,224.644
0.098,9.416,4.576,4.576,150.832,14.035,224.490
0.100,9.564,4.586,4.586,150.863,14.027,224.346
0.101,9.697,4.589,4.589,150.893,14.012,224.217
0.103,9.812,4.584,4.584,150.917,13.987,224.107
0.104,9.907,4.571,4.571,150.936,13.953,224.020
0.106,9.988,4.552,4.552,150.948,13.911,223.952
0.107,10.059,4.531,4.531,150.953,13.867,223.896
0.109,10.126,4.510,4.510,150.949,13.823,223.846
0.110,10.192,4.489,4.489,150.936,13.784,223.794
0.112,10.262,4.472,4.472,150.914,13.754,223.734
0.113,10.345,4.459,4.459,150.881,13.737,223.660
0.115,10.450,4.450,4.450,150.838,13.737,223.564
0.116,10.587,4.441,4.442,150.783,13.757,223.441
0.118,10.765,4.434,4.434,150.716,13.801,223.282
0.119,10.989,4.425,4.425,150.637,13.873,223.086
0.121,11.252,4.415,4.415,150.547,13.967,222.857
0.122,11.546,4.401,4.401,150.450,14.079,222.603
0.124,11.862,4.385,4.385,150.346,14.205,222.332
0.125,12.192,4.369,4.369,150.237,14.339,222.051
0.127,12.526,4.354,4.354,150.127,14.478,221.767
0.128,12.856,4.342,4.342,150.016,14.616,221.489
0.130,13.172,4.335,4.335,149.908,14.748,221.223
0.131,13.466,4.334,4.334,149.803,14.870,220.977
0.133,13.729,4.342,4.342,149.705,14.978,220.758
0.134,13.957,4.355,4.356,149.613,15.069,220.570
0.136,14.154,4.374,4.375,149.529,15.144,220.409
0.137,14.324,4.397,4.397,149.452,15.206,220.272
0.139,14.469,4.422,4.422,149.381,15.256,220.155
0.140,14.594,4.447,4.447,149.317,15.296,220.055
0.142,14.703,4.472,4.471,149.260,15.327,219.968
0.144,14.798,4.494,4.494,149.209,15.351,219.892
0.145,14.883,4.515,4.514,149.164,15.371,219.821
0.147,14.963,4.535,4.534,149.125,15.386,219.754
0.148,15.039,4.554,4.553,149.092,15.400,219.686
0.150,15.115,4.572,4.571,149.064,15.413,219.617
0.151,15.193,4.589,4.589,149.038,15.425,219.545
0.153,15.272,4.607,4.607,149.014,15.437,219.470
0.154,15.355,4.624,4.627,148.989,15.450,219.392
0.156,15.442,4.643,4.647,148.961,15.463,219.310
0.157,15.535,4.665,4.669,148.928,15.478,219.225
0.159,15.634,4.690,4.694,148.889,15.495,219.135
0.160,15.742,4.719,4.722,148.843,15.514,219.040
0.162,15.859,4.754,4.754,148.786,15.535,218.940
0.163,15.986,4.795,4.790,148.718,15.560,218.835
0.165,16.123,4.841,4.830,148.640,15.586,218.726
0.166,16.264,4.888,4.872,148.557,15.613,218.615
0.168,16.408,4.934,4.916,148.470,15.640,218.504
0.169,16.550,4.977,4.961,148.384,15.666,218.394
0.171,16.687,5.015,5.006,148.301,15.689,218.288
0.172,16.815,5.045,5.050,148.223,15.709,218.187
0.174,16.931,5.065,5.092,148.155,15.723,218.094
0.175,17.032,5.078,5.129,148.100,15.731,218.010
0.177,17.116,5.084,5.161,148.059,15.732,217.937
0.178,17.182,5.084,5.185,148.036,15.725,217.876
0.180,17.240,5.079,5.198,148.025,15.707,217.821
0.181,17.300,5.070,5.199,148.024,15.679,217.769
0.183,17.367,5.058,5.187,148.028,15.639,217.715
0.184,17.449,5.045,5.162,148.033,15.585,217.653
0.186,17.549,5.030,5.129,148.035,15.517,217.581
0.187,17.671,5.016,5.092,148.031,15.433,217.491
0.189,17.822,5.004,5.053,148.017,15.331,217.381
0.190,18.005,4.994,5.017,147.987,15.212,217.246
0.192,18.227,4.988,4.989,147.939,15.072,217.080
0.193,18.486,4.986,4.970,147.873,14.915,216.885
0.195,18.776,4.989,4.963,147.791,14.743,216.666
0.196,19.088,4.996,4.966,147.697,14.562,216.431
0.198,19.413,5.009,4.979,147.596,14.375,216.185
0.199,19.742,5.027,5.004,147.492,14.186,215.936
0.201,20.067,5.050,5.038,147.388,14.000,215.691
0.202,20.379,5.078,5.083,147.287,13.821,215.456
0.204,20.669,5.112,5.137,147.195,13.654,215.237
0.205,20.929,5.149,5.197,147.115,13.502,215.042
0.207,21.151,5.188,5.259,147.049,13.370,214.876
0.208,21.335,5.227,5.320,146.999,13.258,214.740
0.210,21.484,5.266,5.377,146.963,13.163,214.630
0.211,21.603,5.302,5.425,146.939,13.084,214.544
0.213,21.697,5.335,5.461,146.924,13.020,214.477
0.215,21.769,5.364,5.485,146.918,12.968,214.427
0.216,21.825,5.389,5.500,146.918,12.926,214.391
0.218,21.867,5.410,5.506,146.923,12.893,214.365
0.219,21.901,5.428,5.508,146.930,12.866,214.346
0.221,21.929,5.443,5.506,146.938,12.844,214.330
0.222,21.954,5.455,5.502,146.945,12.826,214.316
0.224,21.976,5.465,5.500,146.949,12.809,214.301
0.225,21.997,5.473,5.499,146.949,12.794,214.287
0.227,22.018,5.480,5.499,146.942,12.779,214.273
0.228,22.044,5.486,5.500,146.926,12.765,214.258
0.230,22.078,5.492,5.503,146.901,12.749,214.242
0.231,22.122,5.497,5.507,146.864,12.732,214.226
0.233,22.180,5.504,5.512,146.813,12.713,214.208
0.234,22.252,5.512,5.518,146.746,12.690,214.190
0.236,22.343,5.521,5.526,146.662,12.664,214.170
0.237,22.451,5.532,5.535,146.560,12.634,214.148
0.239,22.572,5.545,5.547,146.446,12.600,214.126
0.240,22.702,5.561,5.562,146.322,12.565,214.103
0.242,22.837,5.579,5.579,146.195,12.529,214.081
0.243,22.971,5.600,5.600,146.067,12.493,214.059
0.245,23.101,5.623,5.623,145.944,12.458,214.038
0.246,23.221,5.648,5.648,145.830,12.426,214.020
0.248,23.327,5.672,5.672,145.729,12.397,214.003
0.249,23.414,5.694,5.695,145.647,12.373,213.990
0.251,23.478,5.713,5.713,145.586,12.354,213.980
0.252,23.519,5.727,5.727,145.548,12.341,213.973
0.254,23.542,5.736,5.735,145.527,12.332,213.969
0.255,23.551,5.739,5.737,145.520,12.328,213.966
0.257,23.553,5.738,5.735,145.520,12.328,213.964
0.258,23.558,5.734,5.731,145.525,12.330,213.963
0.260,23.563,5.729,5.726,145.528,12.333,213.961
0.261,23.569,5.723,5.721,145.526,12.338,213.958
0.263,23.584,5.718,5.719,145.513,12.343,213.952
0.264,23.613,5.715,5.720,145.486,12.347,213.944
0.266,23.661,5.714,5.724,145.439,12.350,213.932
0.267,23.727,5.714,5.730,145.375,12.352,213.917
0.269,23.806,5.715,5.737,145.298,12.353,213.900
0.270,23.893,5.716,5.744,145.213,12.353,213.882
0.272,23.985,5.719,5.752,145.123,12.353,213.864
0.273,24.076,5.721,5.758,145.034,12.353,213.847
0.275,24.162,5.724,5.764,144.949,12.354,213.832
0.276,24.239,5.726,5.769,144.873,12.355,213.820
0.278,24.302,5.728,5.773,144.810,12.358,213.813
0.279,24.347,5.730,5.777,144.765,12.363,213.811
0.281,24.373,5.731,5.782,144.741,12.369,213.814
0.282,24.386,5.732,5.787,144.733,12.377,213.821
0.284,24.398,5.732,5.794,144.737,12.385,213.830
0.285,24.414,5.732,5.801,144.748,12.393,213.839
0.287,24.429,5.730,5.806,144.760,12.399,213.845
0.289,24.439,5.727,5.809,144.769,12.404,213.845
0.290,24.446,5.722,5.808,144.769,12.406,213.839
0.292,24.467,5.715,5.801,144.755,12.404,213.823
0.293,24.510,5.707,5.788,144.722,12.398,213.795
0.295,24.581,5.696,5.767,144.666,12.387,213.753
0.296,24.682,5.683,5.741,144.584,12.371,213.697
0.298,24.807,5.668,5.712,144.481,12.351,213.629
0.299,24.950,5.652,5.684,144.361,12.329,213.554
0.301,25.106,5.634,5.658,144.230,12.305,213.473
0.302,25.269,5.615,5.637,144.092,12.282,213.390
0.304,25.433,5.594,5.625,143.951,12.259,213.308
0.305,25.592,5.573,5.620,143.814,12.240,213.231
0.307,25.741,5.551,5.623,143.683,12.224,213.161
0.308,25.873,5.529,5.629,143.565,12.214,213.102
0.310,25.984,5.507,5.636,143.464,12.210,213.057
0.311,26.073,5.485,5.642,143.380,12.213,213.025
0.313,26.147,5.464,5.644,143.310,12.223,213.005
0.314,26.210,5.445,5.641,143.250,12.238,212.994
0.316,26.268,5.426,5.631,143.196,12.260,212.989
0.317,26.325,5.407,5.614,143.146,12.286,212.987
0.319,26.385,5.389,5.591,143.095,12.318,212.986
0.320,26.451,5.370,5.562,143.040,12.353,212.984
0.322,26.525,5.350,5.527,142.977,12.393,212.978
0.323,26.611,5.329,5.486,142.904,12.436,212.965
0.325,26.712,5.307,5.439,142.816,12.482,212.944
0.326,26.828,5.282,5.387,142.714,12.529,212.915
0.328,26.957,5.254,5.332,142.599,12.577,212.883
0.329,27.097,5.222,5.274,142.472,12.624,212.849
0.331,27.244,5.185,5.214,142.334,12.667,212.818
0.332,27.399,5.144,5.153,142.187,12.707,212.792
0.334,27.560,5.096,5.093,142.031,12.741,212.775
0.335,27.725,5.043,5.034,141.868,12.768,212.769
0.337,27.895,4.986,4.977,141.700,12.786,212.777
0.338,28.071,4.926,4.922,141.526,12.794,212.803
0.340,28.254,4.865,4.872,141.348,12.791,212.848
0.341,28.447,4.805,4.825,141.164,12.779,212.906
0.343,28.650,4.748,4.784,140.973,12.758,212.970
0.344,28.861,4.694,4.749,140.773,12.731,213.033
0.346,29.081,4.644,4.718,140.563,12.699,213.089
0.347,29.311,4.598,4.690,140.340,12.664,213.130
0.349,29.551,4.554,4.661,140.103,12.627,213.150
0.350,29.807,4.511,4.631,139.850,12.590,213.142
0.352,30.082,4.469,4.597,139.581,12.555,213.099
0.353,30.385,4.427,4.555,139.292,12.523,213.014
0.355,30.718,4.385,4.506,138.985,12.495,212.887
0.356,31.079,4.345,4.455,138.664,12.471,212.724
0.358,31.461,4.311,4.407,138.333,12.452,212.534
0.360,31.857,4.287,4.370,137.997,12.437,212.325
0.361,32.260,4.276,4.350,137.659,12.426,212.105
0.363,32.662,4.281,4.353,137.326,12.419,211.882
0.364,33.054,4.308,4.387,136.999,12.416,211.665
0.366,33.428,4.355,4.452,136.685,12.418,211.461
0.367,33.777,4.419,4.543,136.388,12.424,211.279
0.369,34.093,4.494,4.649,136.111,12.433,211.126
0.370,34.375,4.576,4.762,135.857,12.447,211.005
0.372,34.625,4.660,4.875,135.626,12.463,210.911
0.373,34.843,4.739,4.979,135.419,12.480,210.841
0.375,35.033,4.811,5.066,135.237,12.497,210.794
0.376,35.193,4.872,5.132,135.080,12.514,210.764
0.378,35.326,4.923,5.180,134.949,12.528,210.750
0.379,35.432,4.964,5.210,134.844,12.539,210.748
0.381,35.511,4.996,5.223,134.765,12.547,210.755
0.382,35.564,5.019,5.221,134.714,12.549,210.768
0.384,35.593,5.033,5.205,134.689,12.545,210.784
0.385,35.612,5.039,5.177,134.688,12.536,210.801
0.387,35.636,5.038,5.143,134.702,12.524,210.816
0.388,35.665,5.033,5.111,134.725,12.512,210.828
0.390,35.695,5.026,5.087,134.752,12.501,210.835
0.391,35.721,5.019,5.078,134.777,12.492,210.835
0.393,35.739,5.013,5.093,134.791,12.489,210.825
0.394,35.759,5.011,5.138,134.791,12.493,210.805
0.396,35.801,5.015,5.215,134.768,12.506,210.773
0.397,35.875,5.026,5.316,134.717,12.530,210.725
0.399,35.985,5.046,5.429,134.634,12.565,210.662
0.400,36.127,5.075,5.544,134.523,12.610,210.585
0.402,36.295,5.114,5.650,134.389,12.661,210.498
0.403,36.483,5.166,5.738,134.237,12.717,210.402
0.405,36.685,5.231,5.796,134.072,12.773,210.301
0.406,36.896,5.307,5.824,133.897,12.828,210.196
0.408,37.108,5.390,5.828,133.719,12.879,210.091
0.409,37.317,5.474,5.817,133.543,12.923,209.989
0.411,37.517,5.556,5.797,133.372,12.956,209.891
0.412,37.702,5.630,5.777,133.212,12.978,209.800
0.414,37.870,5.691,5.763,133.065,12.985,209.718
0.415,38.024,5.736,5.762,132.930,12.982,209.644
0.417,38.166,5.767,5.774,132.806,12.969,209.577
0.418,38.298,5.785,5.796,132.690,12.950,209.517
0.420,38.421,5.796,5.827,132.583,12.925,209.462
0.421,38.537,5.802,5.864,132.481,12.896,209.413
0.423,38.647,5.806,5.904,132.385,12.867,209.368
0.424,38.752,5.814,5.945,132.293,12.839,209.327
0.426,38.853,5.825,5.984,132.203,12.814,209.290
0.427,38.951,5.841,6.021,132.113,12.794,209.254
0.429,39.046,5.860,6.054,132.025,12.779,209.221
0.431,39.138,5.882,6.082,131.940,12.768,209.190
0.432,39.225,5.904,6.104,131.858,12.761,209.161
0.434,39.307,5.926,6.118,131.781,12.757,209.134
0.435,39.382,5.946,6.124,131.710,12.754,209.109
0.437,39.451,5.965,6.122,131.646,12.753,209.085
0.438,39.510,5.983,6.114,131.590,12.752,209.064
0.440,39.561,5.997,6.103,131.544,12.750,209.043
0.441,39.602,6.010,6.090,131.508,12.746,209.024
0.443,39.632,6.020,6.079,131.484,12.740,209.007
0.444,39.657,6.027,6.072,131.468,12.733,208.990
0.446,39.679,6.031,6.071,131.459,12.725,208.971
0.447,39.701,6.032,6.076,131.453,12.718,208.950
0.449,39.727,6.033,6.084,131.448,12.712,208.926
0.450,39.758,6.033,6.095,131.440,12.708,208.896
0.452,39.796,6.033,6.105,131.426,12.708,208.861
0.453,39.844,6.035,6.115,131.404,12.712,208.818
0.455,39.906,6.039,6.121,131.371,12.721,208.766
0.456,39.985,6.046,6.124,131.324,12.736,208.704
0.458,40.083,6.056,6.123,131.262,12.757,208.632
0.459,40.195,6.067,6.120,131.188,12.784,208.552
0.461,40.317,6.080,6.116,131.105,12.814,208.467
0.462,40.445,6.093,6.113,131.018,12.845,208.380
0.464,40.573,6.105,6.112,130.931,12.877,208.292
0.465,40.696,6.117,6.114,130.846,12.907,208.208
0.467,40.811,6.128,6.119,130.767,12.935,208.128
0.468,40.913,6.137,6.126,130.699,12.957,208.057
0.470,40.995,6.146,6.136,130.645,12.974,207.996
0.471,41.056,6.154,6.146,130.609,12.983,207.948
0.473,41.096,6.161,6.157,130.590,12.984,207.913
0.474,41.123,6.169,6.168,130.586,12.980,207.887
0.476,41.147,6.176,6.178,130.592,12.974,207.864
0.477,41.174,6.183,6.186,130.605,12.968,207.842
0.479,41.206,6.190,6.193,130.621,12.964,207.815
0.480,41.244,6.195,6.198,130.636,12.965,207.779
0.482,41.295,6.199,6.201,130.648,12.973,207.731
0.483,41.363,6.201,6.202,130.651,12.990,207.665
0.485,41.455,6.201,6.201,130.642,13.020,207.578
0.486,41.578,6.198,6.197,130.619,13.064,207.466
0.488,41.729,6.191,6.190,130.582,13.120,207.331
0.489,41.900,6.182,6.180,130.534,13.186,207.180
0.491,42.084,6.168,6.166,130.480,13.258,207.020
0.492,42.274,6.149,6.148,130.422,13.332,206.855
0.494,42.462,6.126,6.125,130.364,13.406,206.692
0.495,42.640,6.097,6.098,130.309,13.475,206.537
0.497,42.800,6.064,6.065,130.262,13.536,206.397
0.498,42.936,6.029,6.031,130.225,13.587,206.277
0.500,43.039,5.994,5.997,130.201,13.622,206.183
0.502,43.105,5.962,5.966,130.194,13.642,206.120
0.503,43.141,5.935,5.941,130.199,13.647,206.084
0.505,43.162,5.917,5.924,130.213,13.642,206.070
0.506,43.183,5.909,5.917,130.231,13.630,206.072
0.508,43.208,5.911,5.919,130.247,13.616,206.084
0.509,43.232,5.919,5.927,130.258,13.603,206.102
0.511,43.251,5.930,5.937,130.260,13.596,206.119
0.512,43.269,5.939,5.945,130.247,13.597,206.131
0.514,43.304,5.945,5.948,130.214,13.612,206.131
0.515,43.369,5.942,5.942,130.159,13.643,206.114
0.517,43.470,5.930,5.925,130.079,13.692,206.078
0.518,43.601,5.908,5.898,129.978,13.756,206.026
0.520,43.754,5.880,5.866,129.863,13.834,205.960
0.521,43.924,5.848,5.832,129.737,13.920,205.886
0.523,44.102,5.813,5.799,129.607,14.012,205.805
0.524,44.283,5.779,5.771,129.477,14.107,205.723
0.526,44.459,5.748,5.752,129.353,14.202,205.641
0.527,44.623,5.720,5.743,129.240,14.293,205.565
0.529,44.769,5.697,5.741,129.144,14.378,205.496
0.530,44.890,5.677,5.744,129.068,14.453,205.439
0.532,44.987,5.661,5.749,129.012,14.518,205.393
0.533,45.068,5.649,5.753,128.972,14.575,205.354
0.535,45.139,5.641,5.753,128.940,14.626,205.315
0.536,45.208,5.635,5.746,128.912,14.673,205.274
0.538,45.281,5.632,5.732,128.880,14.718,205.224
0.539,45.368,5.627,5.711,128.841,14.763,205.162
0.541,45.475,5.621,5.683,128.787,14.810,205.082
0.542,45.611,5.609,5.649,128.713,14.861,204.979
0.544,45.785,5.590,5.609,128.613,14.918,204.850
0.545,46.002,5.562,5.563,128.482,14.983,204.690
0.547,46.259,5.523,5.513,128.323,15.056,204.501
0.548,46.550,5.475,5.460,128.141,15.134,204.288
0.550,46.865,5.423,5.408,127.943,15.216,204.057
0.551,47.197,5.370,5.357,127.734,15.300,203.813
0.553,47.539,5.320,5.312,127.520,15.385,203.561
0.554,47.881,5.278,5.275,127.306,15.468,203.306
0.556,48.218,5.247,5.247,127.100,15.549,203.053
0.557,48.540,5.228,5.231,126.906,15.624,202.807
0.559,48.839,5.221,5.225,126.730,15.693,202.575
0.560,49.112,5.223,5.227,126.577,15.755,202.358
0.562,49.359,5.233,5.236,126.446,15.808,202.155
0.563,49.586,5.247,5.249,126.334,15.855,201.963
0.565,49.795,5.264,5.264,126.241,15.895,201.780
0.566,49.993,5.281,5.280,126.163,15.930,201.601
0.568,50.183,5.298,5.297,126.100,15.958,201.425
0.569,50.370,5.314,5.313,126.049,15.982,201.247
0.571,50.557,5.331,5.330,126.008,16.001,201.065
0.573,50.750,5.348,5.347,125.975,16.017,200.875
0.574,50.952,5.365,5.365,125.949,16.029,200.675
0.576,51.164,5.383,5.383,125.927,16.038,200.465
0.577,51.382,5.401,5.401,125.910,16.045,200.247
0.579,51.603,5.420,5.421,125.896,16.050,200.027
0.580,51.822,5.440,5.440,125.885,16.055,199.808
0.582,52.036,5.460,5.460,125.877,16.060,199.595
0.583,52.240,5.481,5.481,125.870,16.065,199.391
0.585,52.430,5.502,5.502,125.865,16.072,199.201
0.586,52.602,5.523,5.523,125.859,16.080,199.029
0.588,52.753,5.544,5.544,125.854,16.091,198.879
0.589,52.878,5.564,5.564,125.848,16.106,198.755
0.591,52.977,5.582,5.582,125.841,16.123,198.657
0.592,53.052,5.598,5.598,125.834,16.140,198.585
0.594,53.106,5.610,5.610,125.827,16.157,198.534
0.595,53.139,5.617,5.617,125.822,16.172,198.504
0.597,53.155,5.620,5.620,125.818,16.181,198.493
0.598,53.162,5.617,5.617,125.816,16.185,198.497
0.600,53.181,5.610,5.609,125.816,16.182,198.516
0.601,53.214,5.599,5.599,125.820,16.168,198.547
0.603,53.262,5.587,5.587,125.828,16.144,198.587
0.604,53.324,5.574,5.574,125.840,16.107,198.635
0.606,53.393,5.562,5.562,125.855,16.062,198.686
0.607,53.460,5.551,5.551,125.870,16.017,198.733
0.609,53.517,5.542,5.543,125.883,15.977,198.771
0.610,53.556,5.539,5.539,125.892,15.948,198.795
0.612,53.567,5.540,5.541,125.896,15.938,198.799
0.613,53.594,5.549,5.549,125.891,15.953,198.776
0.615,53.667,5.566,5.566,125.876,15.998,198.722
0.616,53.794,5.593,5.593,125.848,16.082,198.630
0.618,53.985,5.631,5.631,125.806,16.210,198.495
0.619,54.243,5.680,5.679,125.748,16.385,198.314
0.621,54.556,5.740,5.739,125.678,16.597,198.096
0.622,54.909,5.810,5.808,125.598,16.838,197.850
0.624,55.288,5.890,5.888,125.514,17.097,197.586
0.625,55.678,5.979,5.978,125.428,17.363,197.314
0.627,56.064,6.078,6.078,125.344,17.625,197.043
0.628,56.432,6.183,6.186,125.265,17.874,196.784
