"T","Distance","Radius","FreeRadius","X","Y","Z"
0.000,0.000,1.952,1.952,-22.259,115.256,161.810
0.001,0.310,2.166,2.166,-22.098,115.521,161.816
0.003,0.618,2.378,2.378,-21.938,115.784,161.820
0.004,0.920,2.587,2.587,-21.782,116.042,161.823
0.005,1.213,2.790,2.790,-21.629,116.292,161.823
0.007,1.495,2.987,2.987,-21.481,116.533,161.820
0.008,1.763,3.176,3.176,-21.341,116.761,161.812
0.009,2.015,3.354,3.354,-21.209,116.975,161.800
0.011,2.247,3.521,3.521,-21.086,117.171,161.781
0.012,2.458,3.675,3.675,-20.975,117.348,161.756
0.013,2.645,3.815,3.815,-20.875,117.503,161.723
0.015,2.806,3.941,3.941,-20.790,117.634,161.682
0.016,2.941,4.051,4.051,-20.719,117.737,161.632
0.017,3.052,4.145,4.145,-20.664,117.813,161.572
0.019,3.146,4.222,4.222,-20.623,117.865,161.506
0.020,3.227,4.282,4.282,-20.595,117.898,161.437
0.022,3.301,4.324,4.324,-20.577,117.916,161.368
0.023,3.368,4.351,4.351,-20.569,117.924,161.302
0.024,3.428,4.368,4.368,-20.568,117.926,161.242
0.026,3.479,4.377,4.377,-20.572,117.927,161.192
0.027,3.518,4.384,4.384,-20.581,117.931,161.153
0.028,3.546,4.392,4.392,-20.591,117.942,161.130
0.030,3.572,4.405,4.405,-20.602,117.965,161.126
0.031,3.616,4.428,4.428,-20.612,118.004,161.143
0.032,3.689,4.460,4.460,-20.620,118.064,161.185
0.034,3.794,4.500,4.500,-20.623,118.146,161.251
0.035,3.926,4.545,4.545,-20.624,118.246,161.337
0.036,4.079,4.594,4.594,-20.624,118.361,161.437
0.038,4.246,4.643,4.643,-20.622,118.486,161.548
0.039,4.421,4.691,4.691,-20.621,118.618,161.663
0.040,4.598,4.735,4.735,-20.620,118.752,161.778
0.042,4.771,4.774,4.774,-20.622,118.886,161.887
0.043,4.934,4.806,4.806,-20.626,119.016,161.987
0.044,5.081,4.832,4.832,-20.635,119.136,162.071
0.046,5.208,4.851,4.851,-20.648,119.245,162.135
0.047,5.310,4.865,4.865,-20.666,119.337,162.173
0.048,5.387,4.872,4.872,-20.691,119.410,162.182
0.050,5.450,4.874,4.874,-20.722,119.462,162.163
0.051,5.512,4.870,4.869,-20.755,119.496,162.124
0.052,5.576,4.859,4.859,-20.787,119.515,162.072
0.054,5.639,4.843,4.843,-20.816,119.521,162.016
0.055,5.697,4.822,4.822,-20.839,119.515,161.963
0.056,5.744,4.795,4.795,-20.853,119.501,161.920
0.058,5.776,4.764,4.764,-20.855,119.480,161.896
0.059,5.804,4.728,4.728,-20.842,119.455,161.899
0.060,5.858,4.688,4.688,-20.812,119.429,161.935
0.062,5.955,4.643,4.643,-20.761,119.403,162.013
0.063,6.104,4.595,4.595,-20.686,119.381,162.141
0.065,6.314,4.543,4.543,-20.586,119.363,162.325
0.066,6.582,4.489,4.489,-20.461,119.352,162.561
0.067,6.898,4.434,4.434,-20.314,119.349,162.841
0.069,7.255,4.376,4.376,-20.147,119.354,163.156
0.070,7.643,4.319,4.319,-19.964,119.369,163.498
0.071,8.054,4.260,4.260,-19.766,119.394,163.858
0.073,8.480,4.203,4.203,-19.557,119.431,164.227
0.074,8.912,4.149,4.149,-19.340,119.480,164.597
0.075,9.342,4.100,4.100,-19.117,119.543,164.959
0.077,9.761,4.057,4.057,-18.891,119.621,165.304
0.078,10.164,4.023,4.023,-18.664,119.713,165.624
0.079,10.544,4.000,4.000,-18.440,119.823,165.910
0.081,10.897,3.989,3.989,-18.221,119.949,166.156
0.082,11.224,3.993,3.993,-18.008,120.088,166.362
0.083,11.528,4.009,4.009,-17.805,120.237,166.531
0.085,11.810,4.035,4.036,-17.612,120.392,166.668
0.086,12.072,4.070,4.071,-17.431,120.547,166.776
0.087,12.312,4.110,4.111,-17.265,120.700,166.859
0.089,12.529,4.153,4.154,-17.115,120.845,166.919
0.090,12.721,4.197,4.197,-16.984,120.979,166.960
0.091,12.886,4.240,4.239,-16.872,121.097,166.987
0.093,13.021,4.279,4.278,-16.782,121.196,167.001
0.094,13.121,4.314,4.312,-16.716,121.271,167.008
0.095,13.184,4.344,4.341,-16.675,121.319,167.009
0.097,13.207,4.369,4.366,-16.660,121.337,167.009
0.098,13.216,4.387,4.384,-16.666,121.331,167.008
0.099,13.247,4.399,4.397,-16.686,121.307,167.005
0.101,13.293,4.402,4.402,-16.716,121.273,167.003
0.102,13.345,4.398,4.400,-16.750,121.233,167.000
0.103,13.394,4.389,4.394,-16.783,121.196,166.998
0.105,13.432,4.379,4.387,-16.807,121.167,166.998
0.106,13.450,4.372,4.383,-16.819,121.153,166.998
0.108,13.461,4.374,4.386,-16.811,121.161,167.001
0.109,13.508,4.388,4.398,-16.780,121.196,167.006
0.110,13.602,4.419,4.424,-16.718,121.266,167.013
0.112,13.749,4.471,4.468,-16.621,121.376,167.024
0.113,13.953,4.545,4.530,-16.487,121.528,167.038
0.114,14.203,4.636,4.609,-16.322,121.716,167.056
0.116,14.490,4.740,4.703,-16.133,121.932,167.076
0.117,14.805,4.853,4.810,-15.926,122.168,167.099
0.118,15.138,4.970,4.928,-15.707,122.417,167.125
0.120,15.479,5.085,5.055,-15.483,122.673,167.153
0.121,15.818,5.195,5.189,-15.261,122.927,167.183
0.122,16.145,5.295,5.328,-15.047,123.172,167.214
0.124,16.451,5.384,5.467,-14.847,123.401,167.247
0.125,16.726,5.464,5.603,-14.667,123.607,167.281
0.126,16.960,5.533,5.731,-14.515,123.781,167.316
0.128,17.145,5.594,5.845,-14.396,123.918,167.352
0.129,17.279,5.647,5.943,-14.312,124.016,167.388
0.130,17.371,5.692,6.018,-14.257,124.081,167.424
0.132,17.428,5.730,6.067,-14.229,124.117,167.459
0.133,17.465,5.762,6.089,-14.223,124.130,167.493
0.134,17.500,5.788,6.088,-14.235,124.124,167.525
0.136,17.543,5.809,6.069,-14.260,124.107,167.555
0.137,17.593,5.826,6.038,-14.295,124.082,167.581
0.138,17.647,5.839,6.000,-14.335,124.055,167.605
0.140,17.699,5.850,5.960,-14.377,124.031,167.625
0.141,17.743,5.859,5.924,-14.415,124.015,167.640
0.142,17.775,5.866,5.897,-14.446,124.013,167.650
0.144,17.802,5.872,5.878,-14.466,124.030,167.655
0.145,17.838,5.878,5.868,-14.474,124.065,167.655
0.147,17.890,5.884,5.866,-14.472,124.117,167.650
0.148,17.956,5.890,5.871,-14.462,124.182,167.642
0.149,18.035,5.897,5.881,-14.444,124.258,167.630
0.151,18.125,5.905,5.897,-14.421,124.344,167.617
0.152,18.221,5.914,5.917,-14.394,124.435,167.601
0.153,18.322,5.924,5.940,-14.365,124.530,167.585
0.155,18.425,5.937,5.966,-14.334,124.627,167.568
0.156,18.527,5.950,5.993,-14.303,124.722,167.552
0.157,18.624,5.964,6.020,-14.274,124.814,167.536
0.159,18.714,5.979,6.047,-14.248,124.899,167.523
0.160,18.795,5.995,6.071,-14.227,124.976,167.512
0.161,18.866,6.011,6.092,-14.211,125.045,167.503
0.163,18.928,6.027,6.108,-14.198,125.105,167.496
0.164,18.982,6.042,6.121,-14.189,125.159,167.491
0.165,19.029,6.057,6.130,-14.183,125.205,167.487
0.167,19.069,6.071,6.135,-14.180,125.244,167.485
0.168,19.102,6.083,6.139,-14.180,125.277,167.484
0.169,19.130,6.092,6.140,-14.181,125.305,167.484
0.171,19.152,6.100,6.139,-14.183,125.328,167.484
0.172,19.170,6.104,6.137,-14.186,125.345,167.484
0.173,19.184,6.105,6.135,-14.190,125.359,167.485
0.175,19.195,6.104,6.132,-14.194,125.369,167.485
0.176,19.202,6.101,6.129,-14.198,125.375,167.486
0.177,19.207,6.096,6.126,-14.201,125.379,167.485
0.179,19.211,6.092,6.124,-14.203,125.381,167.484
0.180,19.214,6.087,6.122,-14.205,125.382,167.481
0.181,19.217,6.084,6.121,-14.206,125.382,167.478
0.183,19.222,6.082,6.121,-14.206,125.383,167.473
0.184,19.229,6.081,6.122,-14.204,125.384,167.467
0.185,19.237,6.081,6.124,-14.202,125.386,167.459
0.187,19.249,6.081,6.127,-14.198,125.391,167.450
0.188,19.264,6.081,6.132,-14.192,125.399,167.438
0.190,19.283,6.080,6.137,-14.185,125.410,167.424
0.191,19.308,6.077,6.144,-14.176,125.426,167.407
0.192,19.337,6.071,6.151,-14.165,125.446,167.389
0.194,19.371,6.063,6.159,-14.152,125.471,167.369
0.195,19.410,6.052,6.166,-14.135,125.500,167.350
0.196,19.454,6.038,6.171,-14.114,125.534,167.332
0.198,19.502,6.021,6.170,-14.090,125.573,167.316
0.199,19.556,6.002,6.162,-14.060,125.616,167.304
0.200,19.616,5.980,6.147,-14.025,125.664,167.297
0.202,19.682,5.955,6.120,-13.984,125.716,167.296
0.203,19.756,5.928,6.082,-13.937,125.773,167.303
0.204,19.840,5.897,6.033,-13.882,125.834,167.317
0.206,19.933,5.864,5.975,-13.820,125.899,167.342
0.207,20.038,5.827,5.910,-13.749,125.969,167.377
0.208,20.155,5.786,5.842,-13.671,126.043,167.422
0.210,20.282,5.742,5.772,-13.586,126.121,167.476
0.211,20.417,5.693,5.704,-13.497,126.201,167.538
0.212,20.559,5.640,5.638,-13.403,126.283,167.604
0.214,20.704,5.582,5.578,-13.307,126.367,167.675
0.215,20.852,5.522,5.522,-13.210,126.451,167.747
0.216,20.999,5.460,5.470,-13.114,126.535,167.820
0.218,21.144,5.399,5.421,-13.020,126.619,167.891
0.219,21.284,5.339,5.376,-12.929,126.702,167.959
0.220,21.418,5.283,5.332,-12.842,126.783,168.022
0.222,21.544,5.232,5.291,-12.762,126.861,168.078
0.223,21.660,5.188,5.250,-12.689,126.937,168.126
0.224,21.766,5.150,5.210,-12.622,127.009,168.167
0.226,21.868,5.116,5.170,-12.560,127.081,168.204
0.227,21.968,5.085,5.129,-12.500,127.153,168.238
0.228,22.069,5.054,5.088,-12.441,127.227,168.273
0.230,22.174,5.023,5.045,-12.380,127.304,168.312
0.231,22.287,4.988,5.000,-12.316,127.385,168.356
0.233,22.411,4.949,4.953,-12.246,127.473,168.409
0.234,22.549,4.904,4.904,-12.168,127.567,168.473
0.235,22.705,4.856,4.855,-12.080,127.670,168.551
0.237,22.883,4.808,4.807,-11.981,127.784,168.646
0.238,23.087,4.761,4.764,-11.867,127.908,168.760
0.239,23.318,4.719,4.726,-11.739,128.045,168.895
0.241,23.574,4.683,4.697,-11.597,128.193,169.048
0.242,23.848,4.657,4.678,-11.445,128.348,169.217
0.243,24.136,4.643,4.671,-11.287,128.508,169.396
0.245,24.430,4.641,4.676,-11.126,128.669,169.582
0.246,24.725,4.648,4.691,-10.966,128.829,169.771
0.247,25.015,4.664,4.712,-10.809,128.984,169.959
0.249,25.294,4.685,4.738,-10.660,129.133,170.142
0.250,25.556,4.711,4.767,-10.521,129.270,170.316
0.251,25.794,4.738,4.795,-10.396,129.395,170.476
0.253,26.004,4.766,4.820,-10.289,129.503,170.620
0.254,26.179,4.792,4.842,-10.202,129.592,170.744
0.255,26.315,4.816,4.858,-10.139,129.660,170.843
0.257,26.417,4.837,4.870,-10.096,129.711,170.921
0.258,26.490,4.854,4.878,-10.071,129.746,170.979
0.259,26.540,4.866,4.881,-10.059,129.772,171.021
0.261,26.574,4.872,4.880,-10.058,129.791,171.049
0.262,26.598,4.872,4.874,-10.064,129.807,171.066
0.263,26.620,4.866,4.864,-10.074,129.825,171.074
0.265,26.645,4.852,4.850,-10.084,129.848,171.076
0.266,26.677,4.834,4.833,-10.091,129.879,171.075
0.267,26.722,4.813,4.813,-10.092,129.924,171.074
0.269,26.783,4.790,4.792,-10.083,129.985,171.074
0.270,26.868,4.766,4.770,-10.061,130.066,171.079
0.272,26.979,4.745,4.747,-10.024,130.170,171.091
0.273,27.114,4.726,4.726,-9.973,130.293,171.109
0.274,27.271,4.712,4.706,-9.909,130.435,171.133
0.276,27.447,4.702,4.689,-9.834,130.591,171.164
0.277,27.640,4.697,4.677,-9.748,130.760,171.201
0.278,27.847,4.696,4.672,-9.654,130.939,171.244
0.280,28.065,4.700,4.675,-9.551,131.125,171.293
0.281,28.291,4.708,4.688,-9.443,131.315,171.348
0.282,28.522,4.721,4.713,-9.329,131.508,171.408
0.284,28.757,4.738,4.751,-9.211,131.700,171.474
0.285,28.992,4.758,4.802,-9.091,131.888,171.545
0.286,29.224,4.783,4.860,-8.969,132.071,171.622
0.288,29.453,4.812,4.924,-8.848,132.247,171.703
0.289,29.675,4.844,4.989,-8.727,132.414,171.787
0.290,29.891,4.878,5.052,-8.609,132.573,171.873
0.292,30.097,4.916,5.108,-8.495,132.721,171.959
0.293,30.294,4.956,5.155,-8.385,132.860,172.044
0.294,30.478,4.998,5.189,-8.282,132.988,172.127
0.296,30.648,5.041,5.212,-8.185,133.104,172.206
0.297,30.803,5.083,5.226,-8.097,133.208,172.279
0.298,30.940,5.124,5.233,-8.019,133.299,172.346
0.300,31.058,5.161,5.236,-7.951,133.376,172.405
0.301,31.156,5.193,5.235,-7.896,133.439,172.454
0.302,31.231,5.219,5.233,-7.854,133.488,172.493
0.304,31.284,5.238,5.231,-7.824,133.522,172.521
0.305,31.318,5.250,5.232,-7.806,133.543,172.539
0.306,31.335,5.255,5.234,-7.797,133.555,172.549
0.308,31.339,5.255,5.236,-7.796,133.557,172.552
0.309,31.347,5.252,5.238,-7.801,133.552,172.549
0.310,31.363,5.245,5.239,-7.811,133.541,172.540
0.312,31.386,5.236,5.239,-7.824,133.527,172.529
0.313,31.412,5.227,5.238,-7.839,133.510,172.514
0.315,31.439,5.218,5.234,-7.853,133.493,172.498
0.316,31.465,5.210,5.228,-7.865,133.478,172.483
0.317,31.486,5.203,5.222,-7.874,133.466,172.468
0.319,31.502,5.197,5.215,-7.879,133.458,172.455
0.320,31.512,5.193,5.207,-7.878,133.456,172.444
0.321,31.522,5.191,5.201,-7.874,133.460,172.437
0.323,31.535,5.192,5.195,-7.865,133.470,172.433
0.324,31.555,5.194,5.191,-7.854,133.486,172.432
0.325,31.583,5.200,5.189,-7.840,133.510,172.435
0.327,31.618,5.207,5.189,-7.824,133.540,172.442
0.328,31.661,5.215,5.194,-7.808,133.579,172.454
0.329,31.713,5.223,5.202,-7.790,133.625,172.470
0.331,31.774,5.231,5.215,-7.773,133.679,172.492
0.332,31.845,5.238,5.233,-7.756,133.742,172.518
0.333,31.925,5.244,5.257,-7.740,133.814,172.551
0.335,32.016,5.247,5.288,-7.726,133.895,172.589
0.336,32.117,5.249,5.323,-7.712,133.985,172.632
0.337,32.227,5.251,5.362,-7.697,134.083,172.681
0.339,32.346,5.253,5.402,-7.679,134.189,172.733
0.340,32.474,5.257,5.442,-7.656,134.301,172.789
0.341,32.610,5.263,5.480,-7.627,134.420,172.848
0.343,32.753,5.272,5.515,-7.590,134.544,172.910
0.344,32.904,5.286,5.544,-7.544,134.673,172.973
0.345,33.063,5.304,5.568,-7.486,134.807,173.037
0.347,33.230,5.325,5.586,-7.416,134.944,173.102
0.348,33.406,5.349,5.600,-7.332,135.084,173.167
0.349,33.592,5.375,5.611,-7.232,135.227,173.232
0.351,33.788,5.402,5.619,-7.116,135.372,173.295
0.352,33.993,5.430,5.625,-6.986,135.517,173.358
0.353,34.205,5.457,5.630,-6.845,135.662,173.421
0.355,34.421,5.483,5.635,-6.695,135.806,173.483
0.356,34.640,5.508,5.640,-6.540,135.947,173.545
0.358,34.859,5.532,5.646,-6.381,136.084,173.607
0.359,35.076,5.558,5.655,-6.222,136.217,173.670
0.360,35.288,5.583,5.668,-6.065,136.345,173.733
0.362,35.493,5.610,5.685,-5.913,136.466,173.797
0.363,35.687,5.639,5.708,-5.769,136.579,173.863
0.364,35.870,5.671,5.737,-5.635,136.684,173.929
0.366,36.038,5.704,5.773,-5.514,136.779,173.998
0.367,36.191,5.738,5.813,-5.407,136.863,174.067
0.368,36.330,5.773,5.855,-5.313,136.938,174.137
0.370,36.456,5.806,5.898,-5.232,137.005,174.208
0.371,36.570,5.837,5.939,-5.163,137.062,174.277
0.372,36.672,5.864,5.976,-5.104,137.112,174.344
0.374,36.764,5.887,6.009,-5.055,137.155,174.408
0.375,36.846,5.904,6.034,-5.015,137.192,174.469
0.376,36.918,5.917,6.053,-4.982,137.222,174.526
0.378,36.980,5.925,6.066,-4.957,137.247,174.578
0.379,37.034,5.929,6.075,-4.937,137.267,174.623
0.380,37.079,5.931,6.081,-4.923,137.284,174.662
0.382,37.114,5.931,6.084,-4.913,137.296,174.694
0.383,37.141,5.930,6.085,-4.906,137.306,174.718
0.384,37.163,5.928,6.087,-4.902,137.314,174.738
0.386,37.182,5.926,6.089,-4.899,137.319,174.756
0.387,37.199,5.925,6.091,-4.896,137.323,174.772
0.388,37.218,5.925,6.094,-4.893,137.327,174.791
0.390,37.240,5.926,6.098,-4.889,137.329,174.812
0.391,37.268,5.930,6.103,-4.882,137.333,174.839
0.392,37.304,5.936,6.110,-4.873,137.336,174.874
0.394,37.351,5.945,6.118,-4.859,137.341,174.919
0.395,37.411,5.958,6.127,-4.841,137.348,174.975
0.397,37.486,5.974,6.139,-4.816,137.356,175.045
0.398,37.577,5.993,6.151,-4.785,137.368,175.131
0.399,37.685,6.014,6.165,-4.748,137.382,175.230
0.401,37.804,6.038,6.179,-4.706,137.398,175.341
0.402,37.931,6.064,6.194,-4.661,137.415,175.458
0.403,38.064,6.091,6.209,-4.613,137.433,175.581
0.405,38.198,6.120,6.224,-4.563,137.452,175.704
0.406,38.331,6.149,6.239,-4.514,137.471,175.826
0.407,38.459,6.178,6.252,-4.466,137.489,175.943
0.409,38.578,6.206,6.265,-4.420,137.507,176.052
0.410,38.685,6.232,6.276,-4.378,137.522,176.149
0.411,38.777,6.254,6.284,-4.340,137.536,176.232
0.413,38.850,6.271,6.290,-4.309,137.548,176.297
0.414,38.902,6.283,6.292,-4.285,137.556,176.342
0.415,38.937,6.289,6.291,-4.266,137.563,176.370
0.417,38.957,6.290,6.287,-4.253,137.568,176.386
0.418,38.969,6.286,6.282,-4.244,137.572,176.393
0.419,38.977,6.279,6.274,-4.238,137.576,176.394
0.421,38.984,6.271,6.267,-4.234,137.582,176.396
0.422,38.993,6.262,6.260,-4.231,137.588,176.401
0.423,39.009,6.255,6.254,-4.228,137.598,176.413
0.425,39.036,6.250,6.251,-4.223,137.610,176.437
0.426,39.080,6.249,6.250,-4.215,137.627,176.477
0.427,39.145,6.251,6.253,-4.205,137.648,176.537
0.429,39.235,6.258,6.260,-4.189,137.675,176.622
0.430,39.352,6.270,6.272,-4.168,137.708,176.732
0.431,39.492,6.288,6.289,-4.143,137.745,176.865
0.433,39.651,6.311,6.312,-4.114,137.787,177.016
0.434,39.825,6.340,6.340,-4.081,137.832,177.180
0.435,40.008,6.377,6.376,-4.047,137.878,177.354
0.437,40.196,6.418,6.417,-4.011,137.925,177.533
0.438,40.385,6.463,6.461,-3.974,137.971,177.712
0.440,40.570,6.509,6.507,-3.938,138.016,177.888
0.441,40.746,6.554,6.552,-3.902,138.059,178.055
0.442,40.908,6.597,6.595,-3.868,138.097,178.209
0.444,41.053,6.635,6.634,-3.837,138.132,178.345
0.445,41.175,6.666,6.667,-3.809,138.160,178.461
0.446,41.272,6.690,6.693,-3.784,138.182,178.552
0.448,41.347,6.707,6.713,-3.764,138.198,178.623
0.449,41.402,6.718,6.726,-3.746,138.209,178.674
0.450,41.440,6.723,6.735,-3.731,138.216,178.708
0.452,41.463,6.724,6.738,-3.719,138.218,178.727
0.453,41.475,6.722,6.738,-3.710,138.217,178.734
0.454,41.483,6.717,6.734,-3.703,138.213,178.731
0.456,41.497,6.711,6.728,-3.697,138.206,178.721
0.457,41.515,6.704,6.719,-3.693,138.198,178.705
0.458,41.537,6.696,6.710,-3.691,138.188,178.686
0.460,41.559,6.689,6.700,-3.690,138.178,178.667
0.461,41.580,6.684,6.692,-3.689,138.167,178.649
0.462,41.598,6.680,6.685,-3.689,138.157,178.634
0.464,41.613,6.680,6.682,-3.689,138.147,178.623
0.465,41.624,6.683,6.682,-3.689,138.138,178.616
0.466,41.631,6.691,6.687,-3.689,138.131,178.615
0.468,41.639,6.701,6.696,-3.688,138.125,178.620
0.469,41.652,6.712,6.707,-3.685,138.121,178.632
0.470,41.673,6.725,6.719,-3.681,138.119,178.652
0.472,41.702,6.736,6.732,-3.675,138.120,178.681
0.473,41.741,6.746,6.744,-3.667,138.123,178.719
0.474,41.791,6.753,6.755,-3.656,138.130,178.767
0.476,41.852,6.755,6.764,-3.642,138.140,178.826
0.477,41.926,6.754,6.770,-3.625,138.155,178.896
0.478,42.011,6.751,6.774,-3.605,138.172,178.977
0.480,42.104,6.744,6.776,-3.582,138.191,179.066
0.481,42.203,6.737,6.777,-3.559,138.211,179.160
0.483,42.305,6.729,6.777,-3.535,138.231,179.257
0.484,42.408,6.721,6.776,-3.511,138.249,179.355
0.485,42.508,6.714,6.775,-3.489,138.265,179.451
0.487,42.603,6.708,6.773,-3.468,138.276,179.544
0.488,42.692,6.704,6.771,-3.449,138.283,179.630
0.489,42.770,6.701,6.768,-3.434,138.284,179.707
0.491,42.838,6.700,6.764,-3.423,138.278,179.773
0.492,42.893,6.698,6.759,-3.417,138.263,179.825
0.493,42.937,6.698,6.752,-3.416,138.239,179.863
0.495,42.978,6.698,6.743,-3.416,138.207,179.889
0.496,43.019,6.698,6.732,-3.415,138.171,179.908
0.497,43.061,6.696,6.717,-3.408,138.133,179.925
0.499,43.107,6.689,6.697,-3.391,138.095,179.945
0.500,43.162,6.674,6.671,-3.360,138.060,179.972
0.501,43.232,6.647,6.637,-3.310,138.031,180.012
0.503,43.326,6.605,6.593,-3.239,138.009,180.069
0.504,43.452,6.546,6.537,-3.141,137.998,180.148
0.505,43.618,6.465,6.469,-3.013,138.001,180.254
0.507,43.831,6.364,6.388,-2.851,138.019,180.391
0.508,44.099,6.249,6.298,-2.650,138.055,180.565
0.509,44.425,6.125,6.204,-2.410,138.112,180.778
0.511,44.801,6.001,6.108,-2.136,138.185,181.025
0.512,45.216,5.884,6.016,-1.836,138.272,181.298
0.513,45.660,5.779,5.932,-1.518,138.369,181.592
0.515,46.123,5.695,5.860,-1.189,138.473,181.900
0.516,46.593,5.638,5.803,-0.856,138.581,182.215
0.517,47.061,5.606,5.761,-0.529,138.690,182.530
0.519,47.515,5.594,5.731,-0.213,138.796,182.840
0.520,47.946,5.599,5.711,0.083,138.896,183.136
0.522,48.343,5.615,5.698,0.352,138.986,183.414
0.523,48.695,5.636,5.689,0.586,139.064,183.665
0.524,48.993,5.660,5.682,0.778,139.125,183.884
0.526,49.231,5.679,5.673,0.924,139.170,184.068
0.527,49.417,5.692,5.662,1.029,139.197,184.218
0.528,49.557,5.699,5.650,1.099,139.210,184.339
0.530,49.660,5.700,5.640,1.140,139.210,184.434
0.531,49.735,5.697,5.633,1.156,139.198,184.506
0.532,49.792,5.690,5.632,1.153,139.175,184.558
0.534,49.842,5.680,5.640,1.138,139.145,184.595
0.535,49.892,5.669,5.657,1.115,139.107,184.619
0.536,49.944,5.656,5.687,1.090,139.064,184.633
0.538,49.997,5.644,5.728,1.068,139.017,184.642
0.539,50.048,5.634,5.775,1.056,138.968,184.649
0.540,50.098,5.626,5.825,1.058,138.918,184.656
0.542,50.152,5.623,5.874,1.077,138.869,184.667
0.543,50.215,5.625,5.918,1.115,138.822,184.683
0.544,50.290,5.634,5.953,1.172,138.779,184.707
0.546,50.381,5.651,5.977,1.247,138.741,184.740
0.547,50.490,5.676,5.985,1.343,138.709,184.783
0.548,50.621,5.707,5.981,1.458,138.686,184.840
0.550,50.776,5.740,5.966,1.595,138.672,184.912
0.551,50.956,5.773,5.943,1.752,138.668,184.999
0.552,51.164,5.802,5.914,1.931,138.677,185.106
0.554,51.403,5.824,5.882,2.132,138.700,185.233
