"T","Distance","Radius","FreeRadius","X","Y","Z"
0.000,0.000,2.784,2.784,280.216,241.195,260.491
0.001,0.247,2.902,2.902,280.040,241.063,260.603
0.002,0.492,3.020,3.020,279.865,240.932,260.713
0.004,0.733,3.137,3.137,279.692,240.801,260.820
0.005,0.969,3.254,3.254,279.524,240.671,260.920
0.006,1.197,3.371,3.371,279.361,240.542,261.013
0.007,1.416,3.486,3.486,279.204,240.413,261.097
0.008,1.624,3.600,3.600,279.056,240.286,261.169
0.010,1.821,3.713,3.713,278.917,240.160,261.228
0.011,2.004,3.824,3.824,278.789,240.036,261.271
0.012,2.175,3.933,3.933,278.673,239.913,261.298
0.013,2.334,4.039,4.039,278.569,239.793,261.306
0.014,2.483,4.141,4.141,278.478,239.675,261.298
0.015,2.624,4.238,4.238,278.398,239.561,261.276
0.017,2.758,4.329,4.329,278.329,239.452,261.242
0.018,2.886,4.413,4.413,278.269,239.348,261.198
0.019,3.008,4.489,4.489,278.217,239.251,261.146
0.020,3.123,4.556,4.556,278.173,239.160,261.090
0.021,3.232,4.614,4.614,278.135,239.078,261.030
0.023,3.333,4.662,4.662,278.103,239.004,260.968
0.024,3.425,4.702,4.702,278.075,238.940,260.909
0.025,3.507,4.733,4.733,278.051,238.886,260.852
0.026,3.579,4.757,4.757,278.031,238.841,260.799
0.027,3.643,4.773,4.773,278.014,238.802,260.752
0.029,3.698,4.783,4.783,277.999,238.769,260.711
0.030,3.744,4.787,4.787,277.987,238.740,260.677
0.031,3.782,4.785,4.785,277.977,238.713,260.651
0.032,3.814,4.778,4.778,277.969,238.687,260.635
0.033,3.842,4.768,4.768,277.962,238.661,260.629
0.035,3.871,4.754,4.754,277.957,238.632,260.634
0.036,3.908,4.739,4.739,277.951,238.600,260.652
0.037,3.955,4.723,4.723,277.947,238.565,260.681
0.038,4.010,4.707,4.707,277.943,238.526,260.721
0.039,4.072,4.693,4.693,277.940,238.486,260.767
0.040,4.137,4.681,4.681,277.937,238.445,260.818
0.042,4.203,4.672,4.672,277.935,238.406,260.871
0.043,4.267,4.667,4.667,277.935,238.368,260.924
0.044,4.327,4.663,4.663,277.935,238.335,260.973
0.045,4.380,4.662,4.662,277.937,238.306,261.017
0.046,4.422,4.662,4.662,277.940,238.283,261.053
0.048,4.452,4.663,4.663,277.945,238.267,261.078
0.049,4.470,4.665,4.665,277.951,238.259,261.093
0.050,4.480,4.668,4.668,277.956,238.255,261.099
0.051,4.484,4.670,4.670,277.961,238.254,261.100
0.052,4.488,4.671,4.671,277.963,238.255,261.099
0.054,4.489,4.673,4.673,277.963,238.255,261.097
0.055,4.495,4.674,4.674,277.958,238.252,261.098
0.056,4.509,4.675,4.675,277.949,238.244,261.105
0.057,4.535,4.675,4.675,277.933,238.229,261.120
0.058,4.576,4.675,4.675,277.911,238.205,261.145
0.060,4.636,4.675,4.675,277.880,238.171,261.184
0.061,4.714,4.675,4.675,277.842,238.126,261.235
0.062,4.806,4.674,4.674,277.799,238.074,261.296
0.063,4.907,4.673,4.673,277.753,238.015,261.365
0.064,5.014,4.672,4.672,277.705,237.952,261.437
0.065,5.122,4.670,4.670,277.659,237.887,261.510
0.067,5.228,4.667,4.667,277.616,237.822,261.582
0.068,5.328,4.664,4.664,277.577,237.759,261.649
0.069,5.417,4.659,4.659,277.546,237.701,261.709
0.070,5.492,4.654,4.654,277.525,237.649,261.758
0.071,5.549,4.648,4.648,277.514,237.605,261.794
0.073,5.593,4.640,4.640,277.514,237.569,261.817
0.074,5.628,4.631,4.631,277.522,237.537,261.829
0.075,5.661,4.621,4.621,277.538,237.507,261.832
0.076,5.698,4.608,4.608,277.559,237.478,261.827
0.077,5.740,4.594,4.594,277.584,237.445,261.817
0.079,5.788,4.578,4.578,277.610,237.406,261.804
0.080,5.844,4.559,4.559,277.636,237.360,261.788
0.081,5.907,4.539,4.539,277.659,237.303,261.772
0.082,5.981,4.515,4.515,277.679,237.233,261.759
0.083,6.068,4.490,4.490,277.694,237.148,261.749
0.085,6.167,4.464,4.464,277.704,237.050,261.742
0.086,6.275,4.438,4.438,277.710,236.942,261.739
0.087,6.390,4.411,4.411,277.713,236.828,261.738
0.088,6.506,4.386,4.386,277.716,236.711,261.740
0.089,6.622,4.362,4.362,277.718,236.596,261.743
0.090,6.733,4.341,4.341,277.722,236.485,261.747
0.092,6.836,4.323,4.323,277.728,236.382,261.752
0.093,6.928,4.308,4.308,277.738,236.291,261.758
0.094,7.006,4.296,4.296,277.753,236.215,261.763
0.095,7.068,4.287,4.287,277.774,236.156,261.768
0.096,7.120,4.280,4.280,277.798,236.110,261.772
0.098,7.168,4.275,4.275,277.825,236.070,261.777
0.099,7.216,4.273,4.273,277.850,236.030,261.784
0.100,7.270,4.273,4.273,277.872,235.983,261.793
0.101,7.334,4.274,4.274,277.889,235.921,261.804
0.102,7.418,4.277,4.277,277.897,235.839,261.820
0.104,7.529,4.281,4.281,277.895,235.730,261.840
0.105,7.674,4.284,4.284,277.880,235.588,261.865
0.106,7.863,4.287,4.287,277.850,235.404,261.895
0.107,8.098,4.288,4.288,277.803,235.177,261.932
0.108,8.373,4.286,4.286,277.742,234.912,261.974
0.110,8.678,4.282,4.282,277.671,234.619,262.019
0.111,9.004,4.274,4.274,277.594,234.305,262.066
0.112,9.342,4.261,4.261,277.515,233.980,262.114
0.113,9.683,4.245,4.245,277.436,233.652,262.160
0.114,10.016,4.226,4.226,277.363,233.330,262.203
0.115,10.332,4.207,4.207,277.298,233.023,262.242
0.117,10.622,4.190,4.190,277.245,232.739,262.274
0.118,10.878,4.175,4.175,277.208,232.487,262.299
0.119,11.094,4.165,4.165,277.189,232.273,262.316
0.120,11.276,4.161,4.161,277.184,232.091,262.326
0.121,11.428,4.165,4.165,277.189,231.939,262.330
0.123,11.556,4.177,4.177,277.200,231.812,262.329
0.124,11.665,4.197,4.197,277.212,231.704,262.325
0.125,11.759,4.224,4.224,277.222,231.611,262.319
0.126,11.842,4.255,4.255,277.226,231.528,262.312
0.127,11.919,4.290,4.290,277.218,231.451,262.306
0.129,11.998,4.328,4.328,277.195,231.375,262.303
0.130,12.088,4.366,4.366,277.153,231.296,262.302
0.131,12.195,4.404,4.404,277.091,231.209,262.306
0.132,12.319,4.440,4.440,277.009,231.116,262.313
0.133,12.459,4.476,4.476,276.910,231.017,262.321
0.135,12.614,4.514,4.514,276.798,230.911,262.329
0.136,12.782,4.556,4.556,276.673,230.799,262.336
0.137,12.960,4.606,4.606,276.540,230.681,262.341
0.138,13.148,4.664,4.664,276.399,230.557,262.342
0.139,13.342,4.734,4.734,276.255,230.427,262.339
0.140,13.542,4.818,4.818,276.108,230.292,262.329
0.142,13.746,4.919,4.919,275.961,230.151,262.313
0.143,13.952,5.036,5.036,275.817,230.006,262.288
0.144,14.159,5.165,5.165,275.676,229.858,262.256
0.145,14.366,5.300,5.300,275.538,229.708,262.217
0.146,14.571,5.435,5.435,275.405,229.559,262.171
0.148,14.773,5.565,5.565,275.277,229.411,262.120
0.149,14.971,5.685,5.685,275.156,229.265,262.063
0.150,15.162,5.788,5.788,275.042,229.125,262.001
0.151,15.346,5.869,5.869,274.935,228.990,261.935
0.152,15.521,5.923,5.923,274.837,228.864,261.865
0.154,15.686,5.952,5.952,274.748,228.746,261.791
0.155,15.840,5.958,5.958,274.670,228.638,261.715
0.156,15.981,5.947,5.947,274.601,228.540,261.639
0.157,16.111,5.923,5.923,274.542,228.453,261.563
0.158,16.227,5.890,5.890,274.494,228.377,261.490
0.160,16.329,5.852,5.852,274.455,228.313,261.421
0.161,16.417,5.813,5.813,274.427,228.259,261.357
0.162,16.489,5.777,5.777,274.409,228.218,261.302
0.163,16.545,5.747,5.747,274.401,228.188,261.255
0.164,16.585,5.723,5.723,274.404,228.171,261.219
0.165,16.612,5.704,5.704,274.417,228.166,261.195
0.167,16.638,5.689,5.689,274.438,228.172,261.182
0.168,16.666,5.677,5.677,274.464,228.184,261.179
0.169,16.696,5.667,5.667,274.490,228.199,261.181
0.170,16.724,5.658,5.658,274.513,228.212,261.188
0.171,16.744,5.650,5.650,274.530,228.220,261.197
0.173,16.753,5.641,5.641,274.535,228.219,261.205
0.174,16.770,5.633,5.633,274.526,228.206,261.209
0.175,16.811,5.624,5.624,274.498,228.176,261.208
0.176,16.883,5.615,5.615,274.449,228.125,261.199
0.177,16.990,5.607,5.607,274.374,228.050,261.180
0.179,17.130,5.600,5.600,274.277,227.954,261.151
0.180,17.295,5.595,5.595,274.162,227.840,261.115
0.181,17.479,5.590,5.590,274.035,227.714,261.074
0.182,17.673,5.588,5.588,273.902,227.580,261.029
0.183,17.872,5.587,5.587,273.767,227.442,260.984
0.185,18.067,5.588,5.588,273.636,227.305,260.939
0.186,18.251,5.589,5.589,273.515,227.173,260.897
0.187,18.417,5.590,5.590,273.407,227.052,260.859
0.188,18.558,5.591,5.591,273.320,226.945,260.829
0.189,18.669,5.590,5.590,273.257,226.856,260.808
0.190,18.751,5.587,5.587,273.216,226.786,260.795
0.192,18.810,5.582,5.582,273.195,226.731,260.789
0.193,18.850,5.573,5.573,273.190,226.691,260.789
0.194,18.879,5.562,5.562,273.198,226.664,260.793
0.195,18.905,5.549,5.549,273.215,226.646,260.800
0.196,18.931,5.535,5.535,273.238,226.638,260.809
0.198,18.958,5.520,5.520,273.264,226.635,260.819
0.199,18.985,5.506,5.506,273.288,226.638,260.828
0.200,19.007,5.493,5.493,273.309,226.644,260.835
0.201,19.023,5.483,5.483,273.323,226.650,260.839
0.202,19.033,5.475,5.475,273.330,226.656,260.840
0.204,19.036,5.470,5.471,273.332,226.659,260.840
0.205,19.039,5.468,5.468,273.330,226.657,260.839
0.206,19.049,5.466,5.466,273.325,226.649,260.837
0.207,19.067,5.464,5.464,273.318,226.632,260.836
0.208,19.096,5.460,5.460,273.311,226.605,260.836
0.210,19.136,5.454,5.454,273.303,226.566,260.837
0.211,19.189,5.443,5.444,273.297,226.513,260.841
0.212,19.259,5.428,5.428,273.294,226.443,260.848
0.213,19.346,5.407,5.407,273.293,226.357,260.858
0.214,19.449,5.381,5.380,273.296,226.255,260.872
0.215,19.566,5.349,5.349,273.302,226.139,260.887
0.217,19.696,5.314,5.313,273.310,226.010,260.904
0.218,19.836,5.275,5.274,273.320,225.872,260.922
0.219,19.985,5.235,5.234,273.331,225.724,260.939
0.220,20.141,5.193,5.192,273.343,225.570,260.955
0.221,20.302,5.150,5.150,273.356,225.410,260.970
0.223,20.466,5.108,5.108,273.369,225.246,260.982
0.224,20.632,5.067,5.068,273.382,225.081,260.991
0.225,20.799,5.028,5.030,273.394,224.915,260.996
0.226,20.968,4.992,4.995,273.407,224.747,260.997
0.227,21.139,4.959,4.963,273.419,224.575,260.994
0.229,21.316,4.931,4.934,273.431,224.400,260.987
0.230,21.498,4.907,4.911,273.443,224.218,260.976
0.231,21.687,4.890,4.892,273.456,224.030,260.961
0.232,21.885,4.879,4.879,273.469,223.834,260.940
0.233,22.092,4.875,4.872,273.483,223.629,260.916
0.235,22.310,4.877,4.871,273.498,223.413,260.887
0.236,22.541,4.883,4.875,273.515,223.186,260.853
0.237,22.782,4.893,4.882,273.532,222.948,260.814
0.238,23.029,4.904,4.892,273.550,222.705,260.773
0.239,23.278,4.915,4.903,273.568,222.461,260.730
0.240,23.522,4.924,4.916,273.586,222.222,260.686
0.242,23.757,4.930,4.928,273.603,221.991,260.642
0.243,23.977,4.931,4.939,273.620,221.776,260.601
0.244,24.177,4.927,4.948,273.634,221.579,260.563
0.245,24.353,4.920,4.955,273.647,221.407,260.529
0.246,24.499,4.910,4.961,273.657,221.265,260.500
0.248,24.610,4.899,4.965,273.665,221.156,260.478
0.249,24.685,4.889,4.968,273.669,221.083,260.464
0.250,24.730,4.881,4.969,273.670,221.038,260.456
0.251,24.749,4.878,4.969,273.668,221.019,260.453
0.252,24.756,4.879,4.968,273.663,221.020,260.456
0.254,24.775,4.887,4.966,273.654,221.036,260.463
0.255,24.806,4.900,4.962,273.642,221.063,260.474
0.256,24.844,4.915,4.956,273.626,221.094,260.488
0.257,24.885,4.931,4.948,273.606,221.126,260.504
0.258,24.925,4.943,4.936,273.583,221.154,260.522
0.260,24.963,4.951,4.921,273.557,221.172,260.541
0.261,25.000,4.952,4.901,273.526,221.180,260.560
0.262,25.038,4.943,4.876,273.492,221.176,260.578
0.263,25.082,4.922,4.846,273.455,221.161,260.594
0.264,25.131,4.888,4.810,273.414,221.136,260.607
0.265,25.189,4.845,4.771,273.369,221.101,260.615
0.267,25.255,4.794,4.729,273.321,221.055,260.617
0.268,25.330,4.740,4.687,273.270,221.000,260.613
0.269,25.416,4.685,4.645,273.216,220.935,260.601
0.270,25.512,4.631,4.605,273.159,220.860,260.580
0.271,25.620,4.581,4.569,273.098,220.776,260.549
0.273,25.739,4.539,4.538,273.035,220.685,260.509
0.274,25.865,4.506,4.513,272.968,220.588,260.463
0.275,25.996,4.481,4.493,272.900,220.488,260.413
0.276,26.130,4.463,4.476,272.829,220.387,260.361
0.277,26.263,4.448,4.460,272.757,220.287,260.311
0.279,26.394,4.434,4.445,272.683,220.189,260.264
0.280,26.520,4.420,4.428,272.607,220.098,260.223
0.281,26.638,4.402,4.406,272.530,220.014,260.191
0.282,26.748,4.378,4.380,272.453,219.939,260.170
0.283,26.848,4.347,4.346,272.375,219.876,260.161
0.285,26.943,4.307,4.305,272.296,219.824,260.164
0.286,27.035,4.262,4.260,272.216,219.779,260.176
0.287,27.127,4.213,4.211,272.135,219.742,260.195
0.288,27.219,4.164,4.162,272.052,219.708,260.218
0.289,27.311,4.116,4.114,271.969,219.677,260.243
0.290,27.405,4.071,4.071,271.883,219.646,260.267
0.292,27.501,4.033,4.033,271.796,219.613,260.287
0.293,27.598,4.004,4.004,271.707,219.575,260.301
0.294,27.700,3.985,3.985,271.616,219.532,260.307
0.295,27.807,3.976,3.974,271.522,219.480,260.302
0.296,27.920,3.973,3.971,271.426,219.422,260.289
0.298,28.038,3.975,3.972,271.329,219.357,260.268
0.299,28.162,3.979,3.975,271.230,219.287,260.243
0.300,28.289,3.984,3.980,271.130,219.213,260.215
0.301,28.419,3.986,3.983,271.030,219.136,260.188
0.302,28.549,3.984,3.982,270.928,219.058,260.163
0.304,28.679,3.975,3.977,270.827,218.979,260.142
0.305,28.807,3.960,3.965,270.726,218.901,260.129
0.306,28.934,3.941,3.951,270.626,218.825,260.124
0.307,29.058,3.922,3.936,270.526,218.751,260.130
0.308,29.179,3.905,3.922,270.429,218.679,260.143
0.310,29.297,3.894,3.911,270.336,218.609,260.161
0.311,29.411,3.892,3.907,270.247,218.541,260.180
0.312,29.519,3.901,3.911,270.166,218.472,260.197
0.313,29.620,3.925,3.925,270.092,218.404,260.209
0.314,29.715,3.965,3.951,270.027,218.334,260.212
0.315,29.804,4.020,3.989,269.973,218.264,260.203
0.317,29.891,4.083,4.037,269.932,218.192,260.179
0.318,29.981,4.152,4.093,269.903,218.117,260.137
0.319,30.082,4.221,4.155,269.888,218.039,260.075
0.320,30.194,4.286,4.223,269.882,217.958,259.997
0.321,30.318,4.343,4.294,269.878,217.873,259.908
0.323,30.450,4.388,4.368,269.873,217.783,259.811
0.324,30.588,4.416,4.442,269.861,217.689,259.711
0.325,30.731,4.427,4.516,269.836,217.588,259.612
0.326,30.878,4.426,4.587,269.794,217.482,259.520
0.327,31.032,4.416,4.654,269.728,217.369,259.437
0.329,31.199,4.403,4.716,269.635,217.249,259.369
0.330,31.385,4.390,4.772,269.509,217.121,259.320
0.331,31.597,4.381,4.820,269.348,216.987,259.291
0.332,31.832,4.381,4.858,269.159,216.847,259.280
0.333,32.087,4.395,4.886,268.947,216.705,259.284
0.335,32.355,4.425,4.902,268.720,216.564,259.300
0.336,32.631,4.470,4.908,268.483,216.425,259.324
0.337,32.907,4.526,4.908,268.244,216.291,259.354
0.338,33.176,4.591,4.904,268.008,216.165,259.386
0.339,33.433,4.662,4.898,267.781,216.049,259.418
0.340,33.668,4.735,4.894,267.572,215.946,259.446
0.342,33.876,4.807,4.894,267.385,215.858,259.468
0.343,34.054,4.876,4.901,267.223,215.785,259.481
0.344,34.205,4.939,4.917,267.085,215.726,259.487
0.345,34.331,4.994,4.944,266.967,215.678,259.486
0.346,34.437,5.042,4.978,266.869,215.639,259.479
0.348,34.526,5.085,5.018,266.787,215.606,259.467
0.349,34.601,5.122,5.062,266.720,215.578,259.449
0.350,34.665,5.155,5.108,266.665,215.553,259.428
0.351,34.723,5.184,5.153,266.620,215.527,259.404
0.352,34.777,5.211,5.197,266.582,215.499,259.376
0.354,34.831,5.235,5.236,266.550,215.467,259.347
0.355,34.887,5.259,5.269,266.522,215.429,259.317
0.356,34.948,5.282,5.298,266.495,215.384,259.286
0.357,35.015,5.306,5.324,266.468,215.332,259.255
0.358,35.089,5.331,5.348,266.439,215.271,259.224
0.360,35.171,5.357,5.372,266.406,215.200,259.195
0.361,35.264,5.387,5.398,266.369,215.120,259.168
0.362,35.369,5.420,5.426,266.324,215.029,259.144
0.363,35.487,5.458,5.460,266.270,214.926,259.123
0.364,35.620,5.501,5.500,266.206,214.810,259.105
0.365,35.770,5.549,5.545,266.130,214.681,259.092
0.367,35.936,5.600,5.595,266.044,214.541,259.083
0.368,36.113,5.652,5.648,265.950,214.390,259.077
0.369,36.297,5.705,5.701,265.854,214.233,259.072
0.370,36.485,5.757,5.754,265.757,214.072,259.068
0.371,36.673,5.806,5.804,265.665,213.909,259.063
0.373,36.856,5.851,5.850,265.580,213.746,259.057
0.374,37.031,5.890,5.890,265.506,213.588,259.047
0.375,37.195,5.922,5.923,265.447,213.435,259.033
0.376,37.346,5.949,5.950,265.407,213.292,259.013
0.377,37.483,5.970,5.972,265.388,213.159,258.987
0.379,37.608,5.989,5.990,265.389,213.038,258.955
0.380,37.725,6.004,6.005,265.408,212.927,258.919
0.381,37.837,6.019,6.019,265.440,212.828,258.879
0.382,37.945,6.033,6.033,265.482,212.738,258.839
0.383,38.047,6.048,6.048,265.532,212.658,258.798
0.385,38.145,6.065,6.065,265.585,212.587,258.758
0.386,38.235,6.084,6.084,265.639,212.525,258.721
0.387,38.317,6.105,6.105,265.691,212.471,258.688
0.388,38.387,6.126,6.126,265.736,212.424,258.660
0.389,38.445,6.148,6.148,265.772,212.384,258.639
0.390,38.490,6.168,6.168,265.799,212.350,258.625
0.392,38.526,6.187,6.187,265.818,212.322,258.615
0.393,38.554,6.203,6.204,265.830,212.298,258.610
0.394,38.576,6.217,6.217,265.836,212.277,258.608
0.395,38.594,6.227,6.227,265.838,212.258,258.609
0.396,38.612,6.234,6.233,265.835,212.240,258.611
0.398,38.630,6.237,6.236,265.830,212.223,258.613
0.399,38.650,6.238,6.237,265.823,212.205,258.615
0.400,38.671,6.237,6.235,265.815,212.186,258.615
0.401,38.694,6.234,6.232,265.807,212.164,258.613
0.402,38.723,6.229,6.228,265.799,212.136,258.607
0.404,38.760,6.224,6.223,265.793,212.101,258.596
0.405,38.808,6.217,6.218,265.788,212.057,258.580
0.406,38.870,6.211,6.213,265.784,211.999,258.556
0.407,38.949,6.208,6.211,265.782,211.927,258.525
0.408,39.047,6.208,6.213,265.783,211.838,258.484
0.410,39.168,6.214,6.220,265.786,211.729,258.434
0.411,39.313,6.229,6.235,265.792,211.597,258.371
0.412,39.487,6.253,6.258,265.801,211.441,258.297
0.413,39.688,6.288,6.291,265.814,211.260,258.210
0.414,39.912,6.336,6.336,265.829,211.059,258.113
0.415,40.150,6.399,6.393,265.847,210.845,258.009
0.417,40.396,6.472,6.460,265.866,210.624,257.903
0.418,40.641,6.553,6.533,265.885,210.404,257.796
0.419,40.880,6.637,6.610,265.905,210.190,257.692
0.420,41.104,6.722,6.686,265.923,209.990,257.594
0.421,41.306,6.803,6.759,265.941,209.809,257.506
0.423,41.479,6.878,6.825,265.956,209.654,257.431
0.424,41.615,6.942,6.881,265.968,209.532,257.371
0.425,41.712,6.992,6.925,265.978,209.445,257.329
0.426,41.774,7.028,6.955,265.984,209.390,257.302
0.427,41.807,7.051,6.973,265.989,209.361,257.287
0.429,41.817,7.061,6.980,265.993,209.352,257.282
0.430,41.826,7.061,6.979,265.996,209.359,257.284
0.431,41.844,7.052,6.969,266.000,209.377,257.290
0.432,41.869,7.034,6.953,266.004,209.400,257.297
0.433,41.893,7.010,6.932,266.011,209.423,257.303
0.435,41.913,6.979,6.907,266.019,209.440,257.305
0.436,41.927,6.945,6.880,266.031,209.447,257.300
0.437,41.948,6.907,6.850,266.046,209.441,257.287
0.438,41.980,6.867,6.820,266.064,209.423,257.268
0.439,42.024,6.825,6.788,266.085,209.392,257.244
0.440,42.079,6.783,6.756,266.108,209.351,257.217
0.442,42.143,6.742,6.725,266.134,209.300,257.188
0.443,42.215,6.703,6.694,266.161,209.240,257.159
0.444,42.294,6.666,6.664,266.190,209.172,257.131
0.445,42.379,6.633,6.636,266.220,209.097,257.106
0.446,42.468,6.604,6.610,266.251,209.016,257.085
0.448,42.561,6.579,6.587,266.282,208.929,257.069
0.449,42.657,6.558,6.565,266.314,208.839,257.060
0.450,42.753,6.539,6.546,266.346,208.748,257.056
0.451,42.848,6.524,6.529,266.377,208.659,257.056
0.452,42.938,6.512,6.515,266.408,208.575,257.059
0.454,43.021,6.502,6.503,266.437,208.497,257.063
0.455,43.094,6.494,6.494,266.466,208.430,257.067
0.456,43.156,6.489,6.487,266.493,208.374,257.072
0.457,43.204,6.484,6.482,266.519,208.334,257.074
0.458,43.236,6.480,6.478,266.543,208.312,257.074
0.460,43.259,6.475,6.473,266.564,208.310,257.069
0.461,43.284,6.468,6.466,266.583,208.324,257.062
0.462,43.314,6.459,6.458,266.598,208.349,257.051
0.463,43.345,6.446,6.445,266.609,208.375,257.039
0.464,43.370,6.429,6.428,266.615,208.395,257.027
0.465,43.383,6.406,6.406,266.615,208.403,257.016
0.467,43.401,6.377,6.378,266.609,208.389,257.006
0.468,43.445,6.342,6.343,266.595,208.348,257.000
0.469,43.526,6.299,6.300,266.573,208.270,256.999
0.470,43.650,6.249,6.250,266.543,208.149,257.003
0.471,43.827,6.191,6.191,266.503,207.978,257.013
0.473,44.051,6.123,6.124,266.454,207.759,257.030
0.474,44.315,6.046,6.046,266.400,207.502,257.053
0.475,44.611,5.959,5.959,266.342,207.213,257.080
0.476,44.929,5.862,5.862,266.283,206.902,257.111
0.477,45.261,5.758,5.758,266.225,206.577,257.145
0.479,45.599,5.649,5.648,266.170,206.245,257.181
0.480,45.934,5.538,5.537,266.121,205.916,257.218
0.481,46.258,5.427,5.426,266.080,205.597,257.256
0.482,46.562,5.320,5.319,266.049,205.297,257.293
0.483,46.840,5.217,5.217,266.030,205.022,257.329
0.485,47.090,5.124,5.123,266.024,204.774,257.363
0.486,47.318,5.040,5.041,266.032,204.548,257.394
