"T","Distance","Radius","FreeRadius","X","Y","Z"
0.000,0.000,2.102,2.102,299.812,283.049,275.189
0.001,0.352,2.091,2.091,299.781,282.981,275.533
0.003,0.702,2.083,2.083,299.751,282.915,275.876
0.004,1.049,2.082,2.082,299.721,282.849,276.215
0.006,1.390,2.091,2.091,299.691,282.784,276.549
0.007,1.724,2.115,2.115,299.662,282.722,276.875
0.009,2.049,2.156,2.156,299.635,282.662,277.193
0.010,2.363,2.218,2.218,299.608,282.605,277.501
0.012,2.664,2.303,2.303,299.582,282.551,277.796
0.013,2.950,2.407,2.407,299.558,282.501,278.077
0.014,3.220,2.526,2.526,299.535,282.456,278.342
0.016,3.472,2.654,2.654,299.515,282.415,278.589
0.017,3.703,2.787,2.787,299.496,282.379,278.817
0.019,3.914,2.919,2.919,299.479,282.349,279.025
0.020,4.104,3.044,3.044,299.463,282.324,279.213
0.022,4.274,3.160,3.160,299.449,282.304,279.381
0.023,4.425,3.263,3.263,299.436,282.289,279.530
0.024,4.557,3.354,3.354,299.423,282.277,279.662
0.026,4.672,3.432,3.432,299.409,282.268,279.775
0.027,4.769,3.496,3.496,299.395,282.263,279.871
0.029,4.850,3.545,3.545,299.380,282.261,279.951
0.030,4.916,3.579,3.579,299.364,282.260,280.014
0.032,4.967,3.598,3.598,299.346,282.262,280.063
0.033,5.006,3.605,3.605,299.325,282.265,280.096
0.035,5.037,3.602,3.602,299.302,282.268,280.115
0.036,5.063,3.592,3.592,299.277,282.273,280.122
0.037,5.089,3.580,3.580,299.252,282.276,280.118
0.039,5.115,3.568,3.568,299.228,282.278,280.106
0.040,5.142,3.560,3.560,299.208,282.278,280.089
0.042,5.166,3.558,3.558,299.193,282.274,280.070
0.043,5.188,3.562,3.562,299.186,282.266,280.051
0.045,5.210,3.570,3.570,299.188,282.253,280.034
0.046,5.236,3.582,3.582,299.201,282.233,280.022
0.047,5.274,3.595,3.595,299.227,282.206,280.018
0.049,5.328,3.609,3.609,299.268,282.171,280.024
0.050,5.403,3.622,3.622,299.326,282.127,280.043
0.052,5.503,3.633,3.633,299.403,282.074,280.077
0.053,5.625,3.642,3.642,299.496,282.011,280.125
0.055,5.766,3.652,3.652,299.603,281.942,280.185
0.056,5.921,3.663,3.663,299.721,281.868,280.254
0.058,6.086,3.678,3.678,299.846,281.793,280.330
0.059,6.255,3.697,3.697,299.974,281.717,280.409
0.060,6.424,3.722,3.722,300.103,281.644,280.490
0.062,6.588,3.754,3.754,300.229,281.575,280.570
0.063,6.742,3.790,3.790,300.349,281.513,280.645
0.065,6.882,3.829,3.829,300.459,281.460,280.714
0.066,7.004,3.868,3.868,300.556,281.419,280.774
0.068,7.102,3.902,3.902,300.637,281.390,280.823
0.069,7.174,3.930,3.930,300.698,281.377,280.857
0.071,7.224,3.948,3.948,300.743,281.377,280.879
0.072,7.259,3.955,3.955,300.775,281.384,280.891
0.073,7.285,3.952,3.952,300.798,281.396,280.897
0.075,7.306,3.944,3.944,300.816,281.408,280.898
0.076,7.324,3.935,3.935,300.831,281.415,280.898
0.078,7.342,3.929,3.929,300.849,281.415,280.899
0.079,7.369,3.929,3.929,300.873,281.402,280.904
0.081,7.415,3.941,3.941,300.906,281.374,280.917
0.082,7.486,3.968,3.968,300.953,281.324,280.938
0.083,7.589,4.010,4.010,301.017,281.250,280.972
0.085,7.731,4.067,4.067,301.102,281.148,281.021
0.086,7.915,4.138,4.138,301.210,281.015,281.086
0.088,8.135,4.222,4.222,301.338,280.854,281.166
0.089,8.385,4.319,4.319,301.483,280.672,281.257
0.091,8.658,4.428,4.428,301.641,280.473,281.356
0.092,8.947,4.549,4.549,301.809,280.262,281.461
0.094,9.246,4.677,4.677,301.982,280.044,281.569
0.095,9.548,4.808,4.808,302.158,279.824,281.677
0.096,9.845,4.938,4.938,302.332,279.606,281.781
0.098,10.132,5.061,5.061,302.500,279.396,281.880
0.099,10.401,5.175,5.175,302.660,279.198,281.970
0.101,10.647,5.273,5.273,302.808,279.019,282.048
0.102,10.861,5.351,5.351,302.939,278.861,282.112
0.104,11.042,5.412,5.412,303.052,278.729,282.160
0.105,11.193,5.458,5.458,303.149,278.619,282.193
0.106,11.316,5.492,5.492,303.231,278.529,282.214
0.108,11.415,5.517,5.517,303.299,278.458,282.225
0.109,11.493,5.537,5.537,303.354,278.402,282.226
0.111,11.555,5.555,5.555,303.399,278.360,282.221
0.112,11.603,5.574,5.574,303.434,278.329,282.209
0.114,11.642,5.594,5.594,303.462,278.307,282.194
0.115,11.673,5.615,5.615,303.483,278.291,282.177
0.117,11.700,5.636,5.636,303.499,278.279,282.159
0.118,11.723,5.657,5.657,303.512,278.269,282.143
0.119,11.743,5.676,5.676,303.522,278.259,282.130
0.121,11.760,5.695,5.695,303.532,278.246,282.121
0.122,11.777,5.711,5.711,303.540,278.233,282.115
0.124,11.794,5.725,5.725,303.548,278.219,282.113
0.125,11.811,5.737,5.737,303.555,278.203,282.113
0.127,11.828,5.747,5.747,303.562,278.187,282.116
0.128,11.846,5.754,5.754,303.569,278.171,282.121
0.129,11.866,5.760,5.760,303.576,278.155,282.127
0.131,11.885,5.763,5.763,303.584,278.139,282.136
0.132,11.906,5.765,5.765,303.592,278.123,282.145
0.134,11.927,5.765,5.765,303.602,278.107,282.156
0.135,11.948,5.764,5.764,303.613,278.093,282.166
0.137,11.970,5.762,5.762,303.625,278.079,282.178
0.138,11.992,5.760,5.760,303.639,278.066,282.189
0.140,12.014,5.757,5.757,303.654,278.055,282.201
0.141,12.037,5.756,5.756,303.671,278.044,282.213
0.142,12.061,5.755,5.755,303.688,278.033,282.225
0.144,12.086,5.756,5.756,303.707,278.023,282.238
0.145,12.111,5.757,5.757,303.726,278.014,282.252
0.147,12.136,5.758,5.758,303.745,278.005,282.266
0.148,12.163,5.758,5.758,303.765,277.996,282.280
0.150,12.189,5.757,5.757,303.785,277.987,282.296
0.151,12.216,5.756,5.756,303.804,277.978,282.312
0.153,12.244,5.752,5.752,303.824,277.969,282.330
0.154,12.272,5.747,5.747,303.843,277.960,282.348
0.155,12.299,5.741,5.741,303.862,277.951,282.366
0.157,12.325,5.734,5.734,303.878,277.942,282.383
0.158,12.347,5.728,5.728,303.893,277.935,282.398
0.160,12.366,5.723,5.723,303.905,277.928,282.411
0.161,12.379,5.719,5.719,303.913,277.924,282.420
0.163,12.385,5.718,5.718,303.917,277.921,282.424
0.164,12.387,5.718,5.718,303.917,277.921,282.422
0.165,12.397,5.721,5.721,303.911,277.924,282.414
0.167,12.417,5.725,5.725,303.899,277.930,282.399
0.168,12.449,5.731,5.731,303.881,277.940,282.375
0.170,12.493,5.738,5.738,303.856,277.954,282.342
0.171,12.548,5.746,5.746,303.824,277.972,282.300
0.173,12.610,5.754,5.754,303.789,277.991,282.254
0.174,12.672,5.763,5.763,303.753,278.011,282.207
0.176,12.728,5.769,5.769,303.720,278.028,282.165
0.177,12.772,5.771,5.771,303.694,278.041,282.132
0.178,12.799,5.768,5.768,303.677,278.047,282.112
0.180,12.803,5.757,5.757,303.674,278.045,282.110
0.181,12.831,5.737,5.737,303.687,278.032,282.132
0.183,12.894,5.707,5.707,303.719,278.007,282.180
0.184,13.000,5.667,5.667,303.775,277.967,282.260
0.186,13.153,5.622,5.622,303.857,277.910,282.376
0.187,13.360,5.573,5.573,303.969,277.834,282.533
0.188,13.620,5.525,5.525,304.110,277.739,282.730
0.190,13.925,5.480,5.480,304.276,277.629,282.961
0.191,14.266,5.442,5.442,304.462,277.507,283.219
0.193,14.634,5.414,5.414,304.663,277.375,283.498
0.194,15.021,5.397,5.397,304.874,277.238,283.791
0.196,15.417,5.390,5.390,305.091,277.098,284.092
0.197,15.813,5.393,5.393,305.308,276.959,284.393
0.199,16.202,5.406,5.406,305.520,276.824,284.689
0.200,16.573,5.427,5.427,305.724,276.696,284.972
0.201,16.919,5.456,5.456,305.913,276.578,285.236
0.203,17.230,5.493,5.493,306.084,276.474,285.474
0.204,17.498,5.535,5.535,306.231,276.387,285.681
0.206,17.722,5.582,5.582,306.354,276.317,285.854
0.207,17.908,5.629,5.629,306.457,276.262,285.999
0.209,18.058,5.676,5.676,306.543,276.221,286.116
0.210,18.180,5.720,5.720,306.613,276.192,286.210
0.212,18.276,5.758,5.758,306.672,276.174,286.284
0.213,18.352,5.789,5.789,306.722,276.166,286.341
0.214,18.413,5.811,5.811,306.766,276.164,286.383
0.216,18.465,5.826,5.826,306.807,276.169,286.415
0.217,18.513,5.835,5.835,306.848,276.178,286.438
0.219,18.563,5.839,5.839,306.893,276.189,286.457
0.220,18.618,5.840,5.840,306.943,276.202,286.474
0.222,18.680,5.837,5.837,307.002,276.214,286.492
0.223,18.750,5.832,5.832,307.068,276.225,286.513
0.224,18.827,5.826,5.826,307.139,276.232,286.538
0.226,18.907,5.822,5.822,307.215,276.235,286.568
0.227,18.992,5.821,5.821,307.291,276.233,286.604
0.229,19.079,5.825,5.825,307.367,276.223,286.647
0.230,19.170,5.835,5.835,307.440,276.205,286.697
0.232,19.266,5.855,5.855,307.508,276.177,286.758
0.233,19.367,5.884,5.884,307.569,276.138,286.828
0.235,19.477,5.924,5.924,307.622,276.087,286.910
0.236,19.599,5.972,5.972,307.663,276.021,287.005
0.237,19.736,6.026,6.026,307.692,275.941,287.113
0.239,19.892,6.086,6.085,307.706,275.846,287.235
0.240,20.063,6.147,6.147,307.707,275.738,287.367
0.242,20.247,6.210,6.210,307.695,275.619,287.508
0.243,20.440,6.271,6.271,307.674,275.494,287.653
0.245,20.638,6.330,6.330,307.643,275.365,287.800
0.246,20.836,6.386,6.386,307.605,275.235,287.944
0.247,21.029,6.438,6.438,307.561,275.108,288.083
0.249,21.215,6.485,6.485,307.512,274.986,288.214
0.250,21.387,6.527,6.527,307.461,274.872,288.333
0.252,21.543,6.562,6.562,307.407,274.769,288.437
0.253,21.677,6.591,6.590,307.354,274.681,288.522
0.255,21.786,6.612,6.612,307.301,274.610,288.587
0.256,21.869,6.627,6.626,307.252,274.558,288.629
0.258,21.930,6.637,6.636,307.207,274.524,288.652
0.259,21.973,6.642,6.641,307.170,274.504,288.660
0.260,22.001,6.644,6.643,307.143,274.497,288.657
0.262,22.021,6.642,6.642,307.127,274.502,288.647
0.263,22.040,6.638,6.639,307.124,274.515,288.634
0.265,22.068,6.632,6.634,307.138,274.536,288.621
0.266,22.110,6.625,6.628,307.170,274.563,288.613
0.268,22.170,6.616,6.621,307.221,274.593,288.612
0.269,22.251,6.606,6.611,307.295,274.624,288.624
0.271,22.358,6.595,6.599,307.394,274.655,288.652
0.272,22.495,6.583,6.584,307.519,274.684,288.699
0.273,22.661,6.569,6.568,307.669,274.709,288.766
0.275,22.852,6.555,6.548,307.839,274.732,288.850
0.276,23.062,6.540,6.528,308.025,274.751,288.946
0.278,23.285,6.523,6.507,308.220,274.768,289.052
0.279,23.516,6.503,6.487,308.422,274.782,289.164
0.281,23.749,6.482,6.468,308.623,274.794,289.280
0.282,23.977,6.458,6.451,308.820,274.804,289.394
0.283,24.195,6.430,6.437,309.008,274.812,289.505
0.285,24.397,6.401,6.427,309.181,274.818,289.609
0.286,24.577,6.370,6.421,309.336,274.822,289.702
0.288,24.729,6.341,6.417,309.465,274.825,289.781
0.289,24.848,6.315,6.418,309.567,274.826,289.842
0.291,24.934,6.294,6.421,309.640,274.826,289.887
0.292,24.991,6.280,6.428,309.689,274.826,289.917
0.294,25.024,6.274,6.438,309.717,274.824,289.934
0.295,25.034,6.277,6.451,309.726,274.822,289.939
0.296,25.042,6.288,6.465,309.720,274.820,289.935
0.298,25.063,6.304,6.480,309.703,274.817,289.923
0.299,25.095,6.323,6.495,309.677,274.815,289.905
0.301,25.133,6.345,6.508,309.646,274.813,289.883
0.302,25.174,6.367,6.520,309.613,274.811,289.859
0.304,25.214,6.387,6.529,309.581,274.810,289.834
0.305,25.250,6.405,6.534,309.554,274.810,289.811
0.306,25.278,6.419,6.536,309.534,274.810,289.791
0.308,25.299,6.431,6.536,309.521,274.811,289.775
0.309,25.313,6.438,6.535,309.516,274.813,289.762
0.311,25.322,6.442,6.533,309.517,274.813,289.753
0.312,25.331,6.441,6.531,309.524,274.813,289.747
0.314,25.345,6.436,6.529,309.537,274.812,289.746
0.315,25.364,6.426,6.527,309.556,274.809,289.749
0.317,25.389,6.413,6.525,309.580,274.803,289.756
0.318,25.421,6.397,6.522,309.608,274.794,289.768
0.319,25.459,6.380,6.518,309.640,274.782,289.784
0.321,25.503,6.361,6.510,309.676,274.767,289.805
0.322,25.554,6.343,6.500,309.715,274.747,289.831
0.324,25.612,6.326,6.486,309.758,274.722,289.861
0.325,25.676,6.310,6.467,309.804,274.694,289.896
0.327,25.747,6.294,6.445,309.854,274.662,289.933
0.328,25.823,6.278,6.420,309.909,274.627,289.974
0.329,25.906,6.260,6.393,309.969,274.589,290.017
0.331,25.994,6.238,6.365,310.035,274.550,290.060
0.332,26.088,6.213,6.336,310.107,274.510,290.105
0.334,26.187,6.183,6.307,310.186,274.470,290.149
0.335,26.291,6.148,6.279,310.272,274.429,290.193
0.337,26.402,6.109,6.250,310.366,274.389,290.234
0.338,26.518,6.066,6.221,310.468,274.350,290.274
0.340,26.642,6.021,6.190,310.580,274.313,290.311
0.341,26.771,5.975,6.158,310.700,274.277,290.344
0.342,26.908,5.929,6.123,310.828,274.243,290.375
0.344,27.050,5.884,6.086,310.964,274.209,290.403
0.345,27.198,5.840,6.046,311.105,274.175,290.428
0.347,27.351,5.797,6.003,311.253,274.141,290.451
0.348,27.509,5.755,5.959,311.405,274.105,290.473
0.350,27.670,5.713,5.914,311.560,274.067,290.492
0.351,27.835,5.670,5.868,311.719,274.026,290.511
0.353,28.002,5.625,5.821,311.880,273.982,290.528
0.354,28.172,5.580,5.776,312.041,273.935,290.544
0.355,28.343,5.532,5.731,312.203,273.883,290.560
0.357,28.515,5.485,5.688,312.365,273.825,290.576
0.358,28.687,5.438,5.646,312.525,273.763,290.591
0.360,28.859,5.394,5.607,312.683,273.698,290.606
0.361,29.028,5.353,5.570,312.837,273.629,290.621
0.363,29.194,5.317,5.536,312.987,273.560,290.635
0.364,29.355,5.287,5.505,313.131,273.490,290.648
0.365,29.510,5.264,5.477,313.270,273.420,290.661
0.367,29.658,5.247,5.453,313.400,273.352,290.673
0.368,29.797,5.235,5.431,313.522,273.287,290.683
0.370,29.925,5.226,5.412,313.635,273.226,290.693
0.371,30.043,5.220,5.396,313.738,273.170,290.701
0.373,30.147,5.217,5.381,313.829,273.120,290.708
0.374,30.237,5.214,5.368,313.908,273.077,290.714
0.376,30.314,5.211,5.356,313.976,273.041,290.719
0.377,30.378,5.209,5.346,314.033,273.010,290.722
0.378,30.431,5.206,5.337,314.079,272.986,290.725
0.380,30.474,5.203,5.331,314.118,272.967,290.729
0.381,30.507,5.200,5.327,314.148,272.953,290.732
0.383,30.533,5.197,5.326,314.171,272.943,290.736
0.384,30.551,5.194,5.327,314.188,272.937,290.740
0.386,30.565,5.190,5.332,314.199,272.934,290.746
0.387,30.575,5.186,5.339,314.207,272.933,290.753
0.388,30.586,5.182,5.348,314.211,272.935,290.762
0.390,30.598,5.179,5.359,314.213,272.938,290.774
0.391,30.612,5.177,5.372,314.214,272.943,290.787
0.393,30.627,5.177,5.387,314.214,272.948,290.802
0.394,30.643,5.178,5.403,314.213,272.951,290.817
0.396,30.656,5.181,5.420,314.214,272.953,290.830
0.397,30.667,5.185,5.434,314.216,272.953,290.841
0.399,30.676,5.187,5.443,314.219,272.949,290.847
0.400,30.687,5.187,5.445,314.226,272.940,290.849
0.401,30.705,5.182,5.435,314.236,272.925,290.844
0.403,30.733,5.173,5.412,314.251,272.904,290.832
0.404,30.774,5.156,5.372,314.270,272.876,290.811
0.406,30.828,5.133,5.315,314.295,272.839,290.779
0.407,30.899,5.102,5.246,314.326,272.793,290.736
0.409,30.985,5.066,5.169,314.365,272.737,290.683
0.410,31.088,5.026,5.089,314.413,272.670,290.621
0.412,31.206,4.981,5.013,314.471,272.593,290.554
0.413,31.338,4.935,4.943,314.542,272.504,290.487
0.414,31.485,4.887,4.887,314.628,272.404,290.422
0.416,31.647,4.838,4.845,314.729,272.292,290.362
0.417,31.827,4.788,4.815,314.848,272.168,290.311
0.419,32.025,4.737,4.790,314.986,272.031,290.273
0.420,32.245,4.683,4.767,315.146,271.881,290.250
0.422,32.490,4.627,4.739,315.328,271.718,290.247
0.423,32.763,4.569,4.703,315.535,271.541,290.266
0.424,33.067,4.507,4.652,315.769,271.350,290.311
0.426,33.403,4.442,4.585,316.026,271.147,290.381
0.427,33.763,4.377,4.509,316.303,270.935,290.472
0.429,34.143,4.317,4.431,316.594,270.717,290.579
0.430,34.534,4.263,4.361,316.894,270.496,290.698
0.432,34.929,4.221,4.304,317.198,270.276,290.825
0.433,35.323,4.192,4.271,317.500,270.060,290.954
0.435,35.706,4.182,4.268,317.796,269.852,291.082
0.436,36.072,4.191,4.299,318.079,269.655,291.204
0.437,36.415,4.216,4.358,318.346,269.471,291.315
0.439,36.725,4.254,4.436,318.590,269.305,291.412
0.440,36.997,4.300,4.524,318.807,269.160,291.489
0.442,37.224,4.349,4.615,318.991,269.038,291.542
0.443,37.408,4.399,4.699,319.143,268.940,291.573
0.445,37.554,4.444,4.767,319.266,268.862,291.583
0.446,37.667,4.482,4.815,319.363,268.803,291.577
0.447,37.754,4.513,4.843,319.436,268.761,291.557
0.449,37.822,4.538,4.855,319.489,268.733,291.525
0.450,37.877,4.558,4.856,319.524,268.717,291.485
0.452,37.927,4.573,4.847,319.544,268.710,291.440
0.453,37.975,4.584,4.832,319.552,268.710,291.392
0.455,38.022,4.592,4.816,319.550,268.716,291.346
0.456,38.067,4.597,4.800,319.543,268.725,291.303
0.458,38.106,4.601,4.785,319.532,268.734,291.266
0.459,38.137,4.603,4.772,319.521,268.741,291.239
0.460,38.159,4.604,4.761,319.510,268.746,291.220
0.462,38.173,4.605,4.752,319.501,268.750,291.210
0.463,38.179,4.606,4.746,319.496,268.751,291.207
0.465,38.183,4.608,4.743,319.495,268.750,291.210
0.466,38.194,4.611,4.744,319.499,268.746,291.220
0.468,38.213,4.615,4.750,319.510,268.740,291.234
0.469,38.241,4.621,4.763,319.529,268.732,291.253
0.471,38.278,4.628,4.784,319.557,268.721,291.275
0.472,38.326,4.636,4.817,319.596,268.707,291.299
0.473,38.385,4.646,4.861,319.646,268.690,291.325
0.475,38.457,4.658,4.920,319.709,268.670,291.353
0.476,38.541,4.672,4.993,319.785,268.647,291.380
0.478,38.636,4.687,5.076,319.872,268.621,291.408
0.479,38.741,4.706,5.164,319.970,268.593,291.436
0.481,38.854,4.726,5.252,320.075,268.562,291.463
0.482,38.973,4.750,5.334,320.186,268.528,291.490
0.483,39.096,4.778,5.405,320.301,268.493,291.515
0.485,39.222,4.809,5.460,320.418,268.455,291.540
0.486,39.348,4.844,5.495,320.536,268.416,291.564
0.488,39.473,4.882,5.512,320.652,268.374,291.586
0.489,39.595,4.920,5.515,320.764,268.332,291.607
0.491,39.713,4.959,5.507,320.872,268.287,291.626
0.492,39.824,4.996,5.491,320.972,268.242,291.642
0.494,39.929,5.030,5.471,321.064,268.196,291.657
0.495,40.026,5.060,5.451,321.149,268.149,291.670
0.496,40.118,5.085,5.434,321.228,268.103,291.683
0.498,40.204,5.105,5.419,321.300,268.059,291.696
0.499,40.285,5.121,5.408,321.367,268.016,291.710
0.501,40.360,5.136,5.400,321.429,267.976,291.725
0.502,40.432,5.150,5.395,321.488,267.939,291.742
0.504,40.499,5.165,5.393,321.543,267.906,291.762
0.505,40.563,5.181,5.395,321.595,267.878,291.786
0.506,40.625,5.200,5.400,321.646,267.855,291.813
0.508,40.687,5.221,5.408,321.696,267.838,291.846
0.509,40.750,5.245,5.420,321.745,267.828,291.884
0.511,40.815,5.269,5.435,321.794,267.824,291.927
0.512,40.885,5.295,5.452,321.844,267.823,291.975
0.514,40.958,5.321,5.473,321.896,267.824,292.027
0.515,41.036,5.347,5.496,321.950,267.825,292.082
0.517,41.117,5.373,5.522,322.008,267.824,292.139
0.518,41.203,5.398,5.550,322.070,267.819,292.199
0.519,41.293,5.425,5.581,322.136,267.808,292.259
0.521,41.389,5.452,5.612,322.208,267.788,292.320
0.522,41.492,5.482,5.645,322.286,267.758,292.380
0.524,41.604,5.515,5.678,322.371,267.716,292.439
0.525,41.727,5.551,5.711,322.464,267.659,292.497
0.527,41.863,5.592,5.745,322.565,267.587,292.551
0.528,42.011,5.635,5.777,322.673,267.501,292.603
0.529,42.167,5.681,5.810,322.786,267.403,292.652
0.531,42.330,5.728,5.841,322.900,267.297,292.696
0.532,42.494,5.776,5.872,323.013,267.185,292.737
0.534,42.657,5.824,5.903,323.124,267.070,292.772
0.535,42.816,5.869,5.932,323.230,266.956,292.803
0.537,42.966,5.913,5.961,323.328,266.845,292.827
0.538,43.105,5.953,5.989,323.416,266.739,292.846
0.540,43.228,5.988,6.016,323.492,266.643,292.859
0.541,43.333,6.019,6.042,323.553,266.558,292.865
0.542,43.416,6.043,6.067,323.597,266.488,292.863
0.544,43.476,6.061,6.092,323.622,266.434,292.854
0.545,43.517,6.071,6.115,323.632,266.396,292.841
0.547,43.546,6.072,6.138,323.630,266.372,292.825
0.548,43.568,6.066,6.159,323.618,266.360,292.811
0.550,43.589,6.055,6.176,323.601,266.358,292.799
0.551,43.610,6.041,6.189,323.582,266.366,292.794
0.553,43.633,6.026,6.196,323.565,266.380,292.798
0.554,43.661,6.011,6.196,323.552,266.401,292.813
0.555,43.700,5.999,6.187,323.547,266.425,292.843
0.557,43.754,5.991,6.170,323.554,266.451,292.889
0.558,43.829,5.986,6.144,323.576,266.478,292.956
0.560,43.930,5.983,6.111,323.617,266.503,293.045
0.561,44.060,5.980,6.075,323.677,266.527,293.157
0.563,44.213,5.975,6.036,323.754,266.548,293.288
0.564,44.387,5.967,5.996,323.845,266.567,293.434
0.565,44.575,5.954,5.957,323.948,266.584,293.591
0.567,44.773,5.935,5.921,324.058,266.598,293.755
0.568,44.975,5.910,5.888,324.174,266.610,293.921
0.570,45.177,5.881,5.858,324.292,266.620,294.085
0.571,45.373,5.850,5.830,324.408,266.627,294.242
0.573,45.559,5.818,5.804,324.521,266.632,294.390
0.574,45.729,5.787,5.780,324.627,266.635,294.522
0.576,45.878,5.758,5.757,324.723,266.636,294.636
0.577,46.001,5.732,5.736,324.805,266.634,294.727
0.578,46.098,5.710,5.716,324.875,266.631,294.795
0.580,46.173,5.692,5.697,324.933,266.627,294.843
0.581,46.232,5.677,5.681,324.981,266.622,294.876
0.583,46.278,5.665,5.667,325.023,266.618,294.896
0.584,46.317,5.655,5.656,325.059,266.616,294.909
0.586,46.351,5.648,5.648,325.093,266.616,294.916
