"T","Distance","Radius","FreeRadius","X","Y","Z"
0.000,0.000,3.735,3.735,216.178,183.922,178.499
0.001,0.113,3.726,3.726,216.195,184.014,178.562
0.003,0.225,3.717,3.717,216.212,184.106,178.625
0.004,0.338,3.709,3.709,216.233,184.197,178.687
0.005,0.450,3.701,3.701,216.257,184.289,178.748
0.007,0.563,3.693,3.693,216.287,184.379,178.809
0.008,0.677,3.686,3.686,216.324,184.469,178.868
0.009,0.792,3.679,3.679,216.369,184.558,178.926
0.011,0.910,3.672,3.672,216.424,184.646,178.982
0.012,1.031,3.667,3.667,216.489,184.733,179.036
0.013,1.158,3.664,3.664,216.567,184.818,179.088
0.015,1.292,3.663,3.663,216.659,184.902,179.138
0.016,1.435,3.665,3.665,216.765,184.985,179.185
0.017,1.588,3.672,3.672,216.888,185.065,179.229
0.019,1.752,3.684,3.684,217.026,185.144,179.270
0.020,1.924,3.702,3.702,217.175,185.220,179.308
0.021,2.101,3.726,3.726,217.332,185.294,179.343
0.023,2.280,3.755,3.755,217.494,185.364,179.375
0.024,2.459,3.789,3.789,217.658,185.430,179.404
0.025,2.634,3.824,3.824,217.819,185.493,179.430
0.027,2.803,3.858,3.858,217.976,185.550,179.453
0.028,2.962,3.891,3.891,218.125,185.603,179.472
0.029,3.108,3.919,3.919,218.262,185.651,179.489
0.031,3.237,3.942,3.942,218.383,185.692,179.503
0.032,3.347,3.958,3.958,218.487,185.728,179.514
0.033,3.435,3.968,3.968,218.569,185.757,179.521
0.035,3.499,3.973,3.973,218.629,185.779,179.526
0.036,3.541,3.974,3.974,218.669,185.795,179.528
0.037,3.566,3.973,3.973,218.691,185.805,179.529
0.039,3.576,3.971,3.971,218.699,185.811,179.527
0.040,3.580,3.969,3.969,218.695,185.812,179.524
0.041,3.593,3.968,3.968,218.683,185.809,179.521
0.042,3.613,3.969,3.969,218.665,185.803,179.517
0.044,3.636,3.971,3.971,218.644,185.794,179.514
0.045,3.660,3.974,3.974,218.623,185.783,179.511
0.046,3.683,3.978,3.978,218.604,185.770,179.509
0.048,3.702,3.982,3.982,218.591,185.756,179.508
0.049,3.717,3.986,3.986,218.586,185.742,179.510
0.050,3.733,3.990,3.990,218.592,185.728,179.513
0.052,3.755,3.993,3.993,218.608,185.714,179.518
0.053,3.783,3.996,3.996,218.632,185.699,179.522
0.054,3.819,3.996,3.996,218.664,185.685,179.525
0.056,3.859,3.994,3.994,218.702,185.670,179.525
0.057,3.905,3.990,3.990,218.745,185.654,179.521
0.058,3.955,3.981,3.981,218.791,185.638,179.511
0.060,4.009,3.969,3.969,218.839,185.621,179.495
0.061,4.066,3.952,3.952,218.888,185.603,179.470
0.062,4.128,3.931,3.931,218.937,185.585,179.437
0.064,4.196,3.907,3.907,218.984,185.565,179.392
0.065,4.270,3.884,3.884,219.028,185.544,179.335
0.066,4.354,3.864,3.864,219.067,185.522,179.266
0.068,4.445,3.848,3.848,219.103,185.499,179.185
0.069,4.542,3.839,3.839,219.138,185.475,179.098
0.070,4.642,3.840,3.840,219.175,185.451,179.008
0.072,4.741,3.852,3.852,219.215,185.429,178.920
0.073,4.838,3.873,3.873,219.262,185.407,178.838
0.074,4.930,3.898,3.898,219.318,185.388,178.768
0.076,5.019,3.924,3.924,219.385,185.371,178.712
0.077,5.109,3.945,3.945,219.466,185.357,178.675
0.078,5.208,3.958,3.958,219.563,185.347,178.662
0.080,5.325,3.959,3.959,219.679,185.341,178.678
0.081,5.470,3.942,3.942,219.816,185.339,178.726
0.082,5.651,3.906,3.906,219.977,185.344,178.810
0.084,5.873,3.858,3.858,220.161,185.354,178.932
0.085,6.130,3.802,3.802,220.366,185.368,179.088
0.086,6.416,3.747,3.747,220.585,185.388,179.271
0.088,6.726,3.698,3.698,220.816,185.410,179.476
0.089,7.051,3.662,3.662,221.053,185.436,179.698
0.090,7.387,3.647,3.647,221.292,185.464,179.931
0.092,7.725,3.657,3.657,221.529,185.494,180.171
0.093,8.059,3.694,3.694,221.759,185.525,180.410
0.094,8.382,3.751,3.751,221.978,185.556,180.645
0.096,8.687,3.823,3.823,222.182,185.587,180.870
0.097,8.967,3.904,3.904,222.366,185.617,181.079
0.098,9.215,3.988,3.988,222.526,185.645,181.267
0.100,9.426,4.071,4.071,222.658,185.671,181.430
0.101,9.602,4.145,4.145,222.765,185.694,181.568
0.102,9.746,4.207,4.207,222.848,185.715,181.683
0.104,9.862,4.257,4.257,222.912,185.733,181.779
0.105,9.955,4.295,4.295,222.959,185.749,181.857
0.106,10.027,4.325,4.325,222.992,185.762,181.919
0.108,10.083,4.347,4.347,223.016,185.772,181.969
0.109,10.126,4.364,4.364,223.032,185.780,182.008
0.110,10.160,4.376,4.376,223.044,185.784,182.039
0.112,10.187,4.386,4.387,223.055,185.786,182.064
0.113,10.212,4.396,4.396,223.068,185.784,182.086
0.114,10.240,4.404,4.404,223.087,185.779,182.106
0.116,10.276,4.413,4.413,223.114,185.772,182.127
0.117,10.320,4.423,4.423,223.150,185.761,182.151
0.118,10.373,4.435,4.435,223.195,185.747,182.176
0.120,10.434,4.448,4.448,223.246,185.730,182.203
0.121,10.502,4.464,4.464,223.305,185.711,182.233
0.122,10.576,4.483,4.483,223.368,185.689,182.264
0.124,10.656,4.505,4.505,223.437,185.666,182.298
0.125,10.740,4.530,4.530,223.508,185.640,182.333
0.126,10.827,4.557,4.557,223.583,185.613,182.371
0.127,10.918,4.585,4.585,223.659,185.584,182.410
0.129,11.010,4.615,4.615,223.736,185.554,182.451
0.130,11.104,4.646,4.646,223.813,185.522,182.495
0.131,11.198,4.677,4.677,223.889,185.490,182.540
0.133,11.292,4.708,4.708,223.963,185.457,182.586
0.134,11.384,4.738,4.738,224.034,185.424,182.634
0.135,11.473,4.767,4.767,224.103,185.391,182.682
0.137,11.560,4.794,4.795,224.167,185.359,182.729
0.138,11.642,4.820,4.820,224.228,185.328,182.776
0.139,11.719,4.843,4.843,224.284,185.299,182.820
0.141,11.790,4.862,4.862,224.335,185.273,182.861
0.142,11.853,4.879,4.879,224.380,185.249,182.899
0.143,11.908,4.891,4.891,224.419,185.229,182.932
0.145,11.953,4.901,4.901,224.450,185.213,182.961
0.146,11.989,4.907,4.907,224.475,185.201,182.983
0.147,12.013,4.912,4.912,224.491,185.194,182.999
0.149,12.025,4.915,4.915,224.499,185.192,183.009
0.150,12.029,4.916,4.916,224.500,185.195,183.012
0.151,12.036,4.917,4.917,224.496,185.201,183.010
0.153,12.048,4.917,4.917,224.488,185.208,183.005
0.154,12.061,4.917,4.918,224.479,185.216,182.998
0.155,12.074,4.917,4.918,224.471,185.223,182.991
0.157,12.085,4.918,4.918,224.465,185.227,182.985
0.158,12.089,4.918,4.919,224.463,185.229,182.981
0.159,12.094,4.919,4.920,224.466,185.225,182.981
0.161,12.110,4.921,4.921,224.478,185.216,182.986
0.162,12.140,4.923,4.923,224.499,185.199,182.997
0.163,12.186,4.927,4.926,224.532,185.173,183.016
0.165,12.250,4.933,4.931,224.578,185.138,183.045
0.166,12.334,4.941,4.940,224.637,185.092,183.083
0.167,12.435,4.954,4.952,224.708,185.037,183.129
0.169,12.550,4.972,4.970,224.787,184.974,183.184
0.170,12.677,4.996,4.995,224.874,184.904,183.245
0.171,12.815,5.027,5.026,224.966,184.826,183.313
0.173,12.961,5.065,5.066,225.061,184.744,183.385
0.174,13.112,5.110,5.113,225.157,184.656,183.462
0.175,13.268,5.160,5.166,225.253,184.564,183.543
0.177,13.425,5.212,5.220,225.347,184.469,183.626
0.178,13.582,5.264,5.276,225.436,184.372,183.712
0.179,13.737,5.315,5.329,225.519,184.273,183.798
0.181,13.888,5.361,5.379,225.593,184.174,183.885
0.182,14.034,5.402,5.423,225.658,184.075,183.971
0.183,14.176,5.435,5.458,225.714,183.977,184.057
0.185,14.315,5.462,5.487,225.762,183.879,184.142
0.186,14.450,5.485,5.511,225.804,183.783,184.227
0.187,14.583,5.504,5.532,225.841,183.688,184.313
0.189,14.712,5.522,5.549,225.873,183.596,184.398
0.190,14.840,5.541,5.566,225.901,183.506,184.484
0.191,14.965,5.561,5.584,225.928,183.419,184.569
0.193,15.088,5.585,5.603,225.953,183.334,184.655
0.194,15.208,5.612,5.625,225.977,183.254,184.742
0.195,15.327,5.642,5.650,226.002,183.177,184.828
0.197,15.444,5.673,5.676,226.029,183.104,184.916
0.198,15.559,5.705,5.704,226.059,183.036,185.004
0.199,15.672,5.736,5.732,226.091,182.973,185.092
0.201,15.784,5.765,5.762,226.125,182.914,185.180
0.202,15.893,5.791,5.792,226.160,182.860,185.269
0.203,16.000,5.814,5.821,226.196,182.810,185.356
0.205,16.104,5.832,5.851,226.232,182.765,185.443
0.206,16.206,5.847,5.879,226.268,182.724,185.528
0.207,16.303,5.861,5.906,226.302,182.688,185.612
0.208,16.397,5.872,5.930,226.335,182.656,185.694
0.210,16.487,5.882,5.951,226.365,182.628,185.774
0.211,16.572,5.892,5.970,226.393,182.605,185.852
0.212,16.653,5.903,5.984,226.417,182.586,185.926
0.214,16.728,5.914,5.994,226.437,182.572,185.997
0.215,16.800,5.925,6.001,226.453,182.562,186.066
0.216,16.867,5.935,6.004,226.467,182.555,186.132
0.218,16.932,5.945,6.003,226.479,182.551,186.196
0.219,16.996,5.952,6.000,226.491,182.549,186.258
0.220,17.058,5.957,5.995,226.504,182.550,186.319
0.222,17.121,5.960,5.987,226.518,182.552,186.380
0.223,17.184,5.959,5.977,226.535,182.555,186.441
0.224,17.250,5.954,5.966,226.557,182.558,186.503
0.226,17.318,5.947,5.953,226.583,182.562,186.565
0.227,17.390,5.938,5.941,226.616,182.564,186.629
0.228,17.467,5.928,5.928,226.656,182.565,186.696
0.230,17.551,5.917,5.916,226.704,182.565,186.765
0.231,17.643,5.906,5.905,226.761,182.563,186.836
0.232,17.741,5.895,5.896,226.826,182.559,186.910
0.234,17.843,5.886,5.888,226.895,182.553,186.984
0.235,17.947,5.878,5.882,226.968,182.546,187.059
0.236,18.051,5.871,5.876,227.041,182.539,187.132
0.238,18.154,5.863,5.871,227.115,182.531,187.204
0.239,18.253,5.856,5.866,227.185,182.523,187.273
0.240,18.347,5.848,5.860,227.252,182.515,187.338
0.242,18.432,5.840,5.853,227.311,182.507,187.399
0.243,18.508,5.831,5.843,227.363,182.501,187.454
0.244,18.571,5.821,5.833,227.404,182.495,187.502
0.246,18.622,5.811,5.822,227.433,182.491,187.543
0.247,18.658,5.802,5.811,227.448,182.488,187.576
0.248,18.683,5.794,5.801,227.451,182.487,187.600
0.250,18.701,5.790,5.795,227.445,182.487,187.618
0.251,18.718,5.789,5.791,227.432,182.489,187.629
0.252,18.736,5.792,5.792,227.415,182.490,187.634
0.254,18.754,5.800,5.798,227.397,182.492,187.633
0.255,18.771,5.812,5.809,227.381,182.494,187.629
0.256,18.785,5.825,5.821,227.369,182.495,187.620
0.258,18.798,5.836,5.833,227.364,182.496,187.608
0.259,18.813,5.845,5.843,227.370,182.496,187.595
0.260,18.837,5.847,5.849,227.387,182.495,187.579
0.262,18.874,5.842,5.849,227.421,182.492,187.563
0.263,18.928,5.827,5.840,227.472,182.487,187.546
0.264,19.001,5.800,5.823,227.542,182.480,187.529
0.266,19.090,5.762,5.797,227.630,182.471,187.513
0.267,19.196,5.715,5.764,227.734,182.459,187.497
0.268,19.316,5.660,5.724,227.852,182.446,187.481
0.270,19.450,5.599,5.679,227.984,182.431,187.466
0.271,19.596,5.531,5.630,228.128,182.413,187.451
0.272,19.752,5.460,5.578,228.283,182.393,187.436
0.274,19.918,5.385,5.524,228.446,182.371,187.422
0.275,20.091,5.308,5.469,228.617,182.347,187.409
0.276,20.271,5.230,5.413,228.795,182.320,187.396
0.278,20.456,5.152,5.357,228.978,182.292,187.384
0.279,20.645,5.075,5.302,229.164,182.261,187.373
0.280,20.837,5.001,5.248,229.352,182.227,187.363
0.282,21.032,4.930,5.196,229.543,182.191,187.352
0.283,21.229,4.863,5.146,229.736,182.152,187.341
0.284,21.428,4.802,5.100,229.930,182.108,187.329
0.286,21.630,4.746,5.056,230.126,182.060,187.314
0.287,21.835,4.695,5.013,230.323,182.006,187.296
0.288,22.043,4.650,4.970,230.521,181.948,187.275
0.290,22.254,4.610,4.926,230.720,181.882,187.250
0.291,22.468,4.576,4.879,230.919,181.811,187.220
0.292,22.686,4.548,4.830,231.119,181.731,187.184
0.293,22.908,4.525,4.776,231.319,181.644,187.141
0.295,23.134,4.507,4.719,231.518,181.549,187.092
0.296,23.366,4.492,4.660,231.718,181.445,187.035
0.297,23.603,4.479,4.601,231.916,181.332,186.973
0.299,23.842,4.468,4.546,232.113,181.213,186.908
0.300,24.082,4.455,4.496,232.308,181.089,186.843
0.301,24.322,4.440,4.454,232.500,180.959,186.782
0.303,24.559,4.422,4.422,232.689,180.827,186.727
0.304,24.792,4.398,4.402,232.875,180.693,186.681
0.305,25.020,4.370,4.393,233.055,180.559,186.648
0.307,25.242,4.340,4.393,233.231,180.425,186.629
0.308,25.457,4.308,4.399,233.402,180.293,186.629
0.309,25.667,4.275,4.408,233.566,180.163,186.650
0.311,25.873,4.243,4.420,233.723,180.039,186.695
0.312,26.077,4.214,4.430,233.873,179.920,186.768
0.313,26.284,4.189,4.438,234.015,179.807,186.866
0.315,26.494,4.168,4.441,234.149,179.701,186.988
0.316,26.708,4.151,4.441,234.276,179.602,187.129
0.317,26.924,4.140,4.437,234.395,179.509,187.284
0.319,27.142,4.133,4.432,234.505,179.424,187.451
0.320,27.358,4.130,4.427,234.608,179.346,187.625
0.321,27.570,4.133,4.422,234.702,179.277,187.802
0.323,27.776,4.140,4.418,234.788,179.214,187.977
0.324,27.971,4.152,4.416,234.866,179.161,188.149
0.325,28.153,4.168,4.416,234.936,179.115,188.311
0.327,28.319,4.187,4.419,234.997,179.078,188.460
0.328,28.465,4.208,4.423,235.049,179.050,188.593
0.329,28.588,4.231,4.428,235.094,179.030,188.707
0.331,28.690,4.253,4.433,235.131,179.017,188.801
0.332,28.774,4.275,4.439,235.162,179.010,188.878
0.333,28.840,4.294,4.444,235.188,179.007,188.939
0.335,28.890,4.311,4.448,235.210,179.007,188.984
0.336,28.927,4.324,4.451,235.230,179.007,189.015
0.337,28.954,4.335,4.454,235.249,179.007,189.034
0.339,28.974,4.341,4.456,235.268,179.004,189.041
0.340,28.995,4.344,4.458,235.288,178.998,189.037
0.341,29.023,4.342,4.460,235.310,178.986,189.025
0.343,29.061,4.336,4.463,235.336,178.967,189.004
0.344,29.111,4.326,4.466,235.366,178.940,188.977
0.345,29.172,4.312,4.469,235.403,178.902,188.945
0.347,29.245,4.296,4.474,235.445,178.854,188.909
0.348,29.329,4.281,4.480,235.494,178.797,188.872
0.349,29.423,4.268,4.487,235.548,178.730,188.836
0.351,29.524,4.261,4.497,235.608,178.655,188.803
0.352,29.634,4.260,4.509,235.674,178.571,188.776
0.353,29.751,4.269,4.523,235.744,178.480,188.757
0.355,29.876,4.289,4.540,235.820,178.382,188.748
0.356,30.008,4.319,4.561,235.901,178.276,188.751
0.357,30.150,4.358,4.585,235.987,178.165,188.769
0.359,30.302,4.405,4.613,236.077,178.048,188.804
0.360,30.466,4.457,4.644,236.172,177.925,188.857
0.361,30.644,4.513,4.680,236.272,177.798,188.933
0.363,30.837,4.572,4.720,236.375,177.667,189.029
0.364,31.042,4.631,4.765,236.481,177.533,189.142
0.365,31.257,4.690,4.814,236.590,177.398,189.269
0.367,31.478,4.747,4.867,236.701,177.264,189.405
0.368,31.702,4.801,4.922,236.813,177.131,189.546
0.369,31.925,4.853,4.978,236.926,177.001,189.689
0.371,32.145,4.901,5.035,237.038,176.875,189.829
0.372,32.356,4.944,5.090,237.149,176.755,189.964
0.373,32.557,4.982,5.144,237.258,176.642,190.088
0.375,32.743,5.014,5.195,237.366,176.537,190.198
0.376,32.911,5.041,5.242,237.470,176.442,190.290
0.377,33.060,5.062,5.284,237.570,176.358,190.361
0.378,33.188,5.081,5.322,237.666,176.286,190.407
0.380,33.300,5.097,5.355,237.757,176.226,190.431
0.381,33.399,5.112,5.383,237.842,176.176,190.436
0.382,33.490,5.127,5.404,237.922,176.134,190.424
0.384,33.574,5.143,5.419,237.996,176.101,190.399
0.385,33.655,5.161,5.427,238.063,176.075,190.364
0.386,33.731,5.180,5.429,238.123,176.056,190.322
0.388,33.803,5.199,5.428,238.176,176.041,190.275
0.389,33.870,5.217,5.424,238.221,176.030,190.227
0.390,33.930,5.233,5.419,238.258,176.022,190.180
0.392,33.981,5.245,5.415,238.287,176.016,190.138
0.393,34.021,5.252,5.413,238.306,176.010,190.103
0.394,34.048,5.254,5.415,238.316,176.005,190.079
0.396,34.063,5.250,5.421,238.319,175.999,190.065
0.397,34.071,5.242,5.429,238.316,175.992,190.061
0.398,34.081,5.232,5.439,238.312,175.985,190.067
0.400,34.098,5.222,5.450,238.309,175.977,190.082
0.401,34.123,5.215,5.459,238.310,175.968,190.105
0.402,34.155,5.212,5.467,238.316,175.959,190.135
0.404,34.197,5.215,5.471,238.333,175.948,190.172
0.405,34.249,5.225,5.471,238.361,175.937,190.215
0.406,34.316,5.244,5.468,238.404,175.924,190.263
0.408,34.397,5.270,5.463,238.464,175.910,190.317
0.409,34.498,5.303,5.460,238.545,175.895,190.374
0.410,34.619,5.340,5.461,238.649,175.879,190.435
0.412,34.763,5.383,5.468,238.776,175.861,190.499
0.413,34.927,5.429,5.483,238.925,175.841,190.566
0.414,35.108,5.477,5.508,239.091,175.819,190.634
0.416,35.304,5.528,5.545,239.272,175.794,190.705
0.417,35.511,5.579,5.590,239.465,175.765,190.776
0.418,35.729,5.630,5.642,239.667,175.733,190.849
0.420,35.952,5.679,5.695,239.875,175.697,190.922
0.421,36.180,5.725,5.749,240.087,175.657,190.995
0.422,36.409,5.767,5.798,240.299,175.611,191.069
0.424,36.637,5.803,5.841,240.509,175.560,191.141
0.425,36.860,5.833,5.873,240.713,175.503,191.212
0.426,37.078,5.858,5.897,240.909,175.439,191.282
0.428,37.287,5.878,5.913,241.094,175.370,191.351
0.429,37.488,5.896,5.925,241.268,175.294,191.416
0.430,37.681,5.915,5.936,241.432,175.215,191.479
0.432,37.865,5.935,5.949,241.586,175.133,191.539
0.433,38.041,5.960,5.966,241.731,175.050,191.594
0.434,38.208,5.991,5.992,241.867,174.967,191.644
0.436,38.365,6.030,6.026,241.993,174.885,191.690
0.437,38.513,6.075,6.069,242.112,174.806,191.730
0.438,38.651,6.123,6.117,242.222,174.731,191.763
0.440,38.779,6.173,6.168,242.325,174.661,191.790
0.441,38.895,6.222,6.218,242.421,174.597,191.809
0.442,39.000,6.266,6.264,242.510,174.542,191.820
0.444,39.095,6.305,6.304,242.593,174.495,191.823
0.445,39.181,6.335,6.336,242.670,174.458,191.817
0.446,39.258,6.356,6.357,242.741,174.429,191.806
0.448,39.330,6.368,6.369,242.806,174.406,191.788
0.449,39.397,6.374,6.374,242.867,174.390,191.766
0.450,39.460,6.374,6.374,242.924,174.378,191.740
0.452,39.520,6.370,6.370,242.976,174.370,191.712
0.453,39.577,6.364,6.364,243.025,174.366,191.683
0.454,39.632,6.357,6.357,243.071,174.363,191.654
0.456,39.683,6.351,6.352,243.113,174.361,191.625
0.457,39.730,6.345,6.348,243.153,174.359,191.599
0.458,39.775,6.341,6.346,243.191,174.355,191.576
0.459,39.816,6.338,6.347,243.227,174.350,191.558
0.461,39.854,6.336,6.350,243.262,174.342,191.544
0.462,39.891,6.337,6.357,243.296,174.331,191.534
0.463,39.928,6.339,6.366,243.329,174.318,191.526
0.465,39.965,6.344,6.379,243.363,174.303,191.521
0.466,40.004,6.351,6.395,243.398,174.286,191.516
0.467,40.045,6.359,6.414,243.434,174.266,191.510
0.469,40.089,6.369,6.434,243.472,174.246,191.504
0.470,40.136,6.379,6.456,243.512,174.223,191.496
0.471,40.187,6.389,6.477,243.555,174.199,191.484
0.473,40.242,6.399,6.497,243.602,174.174,191.468
0.474,40.303,6.407,6.516,243.652,174.148,191.447
0.475,40.370,6.414,6.532,243.708,174.121,191.419
0.477,40.444,6.418,6.544,243.768,174.094,191.385
0.478,40.525,6.421,6.555,243.832,174.066,191.345
0.479,40.611,6.423,6.563,243.900,174.037,191.300
0.481,40.702,6.423,6.569,243.970,174.009,191.252
0.482,40.795,6.421,6.574,244.043,173.980,191.201
0.483,40.890,6.418,6.577,244.116,173.951,191.148
0.485,40.985,6.415,6.580,244.190,173.922,191.096
0.486,41.079,6.410,6.583,244.263,173.893,191.045
0.487,41.170,6.405,6.586,244.335,173.865,190.995
0.489,41.258,6.401,6.588,244.405,173.838,190.950
0.490,41.341,6.396,6.591,244.473,173.811,190.908
0.491,41.419,6.393,6.593,244.536,173.785,190.873
0.493,41.489,6.391,6.595,244.595,173.760,190.844
0.494,41.552,6.391,6.598,244.649,173.736,190.822
0.495,41.608,6.393,6.600,244.697,173.712,190.806
0.497,41.657,6.398,6.603,244.739,173.691,190.795
0.498,41.698,6.403,6.604,244.774,173.670,190.788
0.499,41.732,6.409,6.605,244.802,173.650,190.785
0.501,41.760,6.413,6.604,244.823,173.632,190.784
0.502,41.781,6.414,6.602,244.834,173.615,190.786
0.503,41.797,6.412,6.596,244.837,173.599,190.788
0.505,41.813,6.405,6.588,244.830,173.584,190.791
0.506,41.835,6.391,6.576,244.813,173.571,190.794
0.507,41.865,6.373,6.561,244.786,173.559,190.795
0.509,41.905,6.352,6.546,244.747,173.549,190.794
0.510,41.954,6.333,6.533,244.699,173.540,190.791
0.511,42.008,6.317,6.522,244.645,173.533,190.786
0.513,42.062,6.307,6.516,244.592,173.526,190.780
0.514,42.112,6.306,6.517,244.543,173.520,190.774
0.515,42.151,6.316,6.527,244.505,173.514,190.767
0.517,42.176,6.339,6.546,244.481,173.509,190.762
0.518,42.185,6.369,6.569,244.477,173.503,190.757
0.519,42.206,6.399,6.590,244.497,173.497,190.755
0.521,42.256,6.423,6.605,244.547,173.491,190.756
0.522,42.341,6.435,6.608,244.632,173.484,190.759
0.523,42.466,6.428,6.594,244.756,173.476,190.767
0.525,42.635,6.396,6.555,244.924,173.466,190.779
0.526,42.852,6.331,6.489,245.140,173.456,190.796
0.527,43.110,6.235,6.394,245.397,173.444,190.817
0.529,43.402,6.115,6.277,245.687,173.431,190.843
0.530,43.717,5.978,6.143,246.001,173.417,190.871
0.531,44.049,5.832,5.999,246.331,173.403,190.901
0.533,44.388,5.684,5.852,246.669,173.389,190.934
0.534,44.726,5.541,5.706,247.005,173.374,190.967
0.535,45.055,5.411,5.568,247.332,173.360,191.001
0.537,45.366,5.302,5.445,247.641,173.347,191.034
0.538,45.651,5.212,5.336,247.924,173.334,191.066
0.539,45.901,5.142,5.244,248.172,173.323,191.096
0.541,46.108,5.089,5.168,248.376,173.313,191.123
