"T","Distance","Radius","FreeRadius","X","Y","Z"
0.000,0.000,2.094,2.094,22.331,12.075,69.969
0.002,0.363,2.260,2.260,22.414,12.119,70.320
0.003,0.724,2.425,2.425,22.498,12.161,70.668
0.005,1.079,2.588,2.588,22.586,12.202,71.010
0.006,1.426,2.748,2.748,22.678,12.239,71.342
0.008,1.763,2.904,2.904,22.776,12.271,71.663
0.009,2.087,3.056,3.056,22.882,12.299,71.968
0.011,2.397,3.201,3.201,22.997,12.319,72.255
0.012,2.691,3.340,3.340,23.122,12.332,72.520
0.014,2.968,3.470,3.470,23.260,12.337,72.761
0.015,3.230,3.589,3.589,23.411,12.331,72.975
0.017,3.477,3.696,3.696,23.577,12.315,73.158
0.019,3.715,3.789,3.789,23.758,12.287,73.308
0.020,3.947,3.866,3.866,23.955,12.251,73.428
0.022,4.178,3.926,3.926,24.163,12.209,73.518
0.023,4.410,3.970,3.970,24.381,12.164,73.582
0.025,4.644,3.998,3.998,24.607,12.120,73.622
0.026,4.880,4.012,4.012,24.839,12.080,73.640
0.028,5.118,4.012,4.012,25.075,12.046,73.638
0.029,5.357,4.000,4.000,25.312,12.022,73.619
0.031,5.596,3.976,3.976,25.548,12.011,73.585
0.033,5.835,3.945,3.945,25.782,12.016,73.539
0.034,6.072,3.912,3.912,26.011,12.040,73.481
0.036,6.308,3.883,3.883,26.233,12.084,73.416
0.037,6.542,3.866,3.866,26.449,12.146,73.349
0.039,6.772,3.866,3.866,26.657,12.221,73.282
0.040,6.998,3.889,3.889,26.857,12.306,73.223
0.042,7.216,3.941,3.941,27.049,12.396,73.176
0.043,7.424,4.015,4.015,27.234,12.487,73.145
0.045,7.621,4.100,4.100,27.410,12.576,73.136
0.046,7.808,4.188,4.188,27.577,12.659,73.153
0.048,7.989,4.267,4.267,27.735,12.731,73.201
0.050,8.170,4.328,4.328,27.884,12.788,73.286
0.051,8.362,4.360,4.360,28.023,12.828,73.413
0.053,8.576,4.363,4.363,28.153,12.846,73.582
0.054,8.816,4.343,4.343,28.275,12.846,73.788
0.056,9.079,4.309,4.309,28.389,12.828,74.026
0.057,9.363,4.271,4.271,28.498,12.796,74.286
0.059,9.663,4.238,4.238,28.602,12.752,74.563
0.060,9.971,4.217,4.217,28.702,12.697,74.849
0.062,10.282,4.218,4.218,28.801,12.634,75.138
0.063,10.591,4.238,4.238,28.898,12.566,75.422
0.065,10.889,4.273,4.273,28.996,12.494,75.695
0.067,11.172,4.319,4.319,29.096,12.421,75.950
0.068,11.433,4.371,4.371,29.198,12.349,76.179
0.070,11.669,4.425,4.425,29.304,12.280,76.378
0.071,11.882,4.477,4.477,29.411,12.213,76.549
0.073,12.072,4.524,4.524,29.518,12.150,76.693
0.074,12.242,4.565,4.565,29.623,12.091,76.813
0.076,12.393,4.600,4.600,29.724,12.036,76.911
0.077,12.526,4.631,4.631,29.819,11.985,76.988
0.079,12.642,4.657,4.657,29.907,11.938,77.048
0.080,12.741,4.678,4.678,29.985,11.896,77.091
0.082,12.823,4.695,4.695,30.052,11.859,77.120
0.084,12.888,4.708,4.708,30.107,11.827,77.137
0.085,12.936,4.718,4.718,30.146,11.800,77.144
0.087,12.968,4.726,4.726,30.170,11.779,77.144
0.088,12.988,4.733,4.733,30.181,11.763,77.138
0.090,13.002,4.740,4.740,30.184,11.753,77.129
0.091,13.013,4.748,4.748,30.180,11.747,77.120
0.093,13.023,4.757,4.757,30.174,11.745,77.114
0.094,13.030,4.768,4.768,30.167,11.748,77.112
0.096,13.039,4.778,4.778,30.164,11.754,77.118
0.098,13.058,4.788,4.788,30.167,11.765,77.133
0.099,13.091,4.798,4.798,30.180,11.778,77.161
0.101,13.144,4.806,4.806,30.206,11.794,77.204
0.102,13.219,4.812,4.812,30.247,11.813,77.264
0.104,13.319,4.818,4.819,30.305,11.835,77.343
0.105,13.442,4.827,4.827,30.380,11.859,77.437
0.107,13.585,4.840,4.840,30.470,11.885,77.545
0.108,13.746,4.859,4.859,30.572,11.913,77.665
0.110,13.921,4.888,4.888,30.688,11.942,77.795
0.111,14.109,4.929,4.929,30.813,11.973,77.931
0.113,14.307,4.983,4.983,30.948,12.006,78.071
0.115,14.512,5.047,5.047,31.092,12.039,78.214
0.116,14.722,5.119,5.119,31.241,12.074,78.358
0.118,14.934,5.196,5.196,31.396,12.109,78.498
0.119,15.147,5.275,5.275,31.555,12.144,78.635
0.121,15.357,5.354,5.354,31.717,12.180,78.765
0.122,15.564,5.430,5.430,31.879,12.215,78.889
0.124,15.766,5.503,5.503,32.039,12.249,79.007
0.125,15.962,5.571,5.571,32.197,12.281,79.119
0.127,16.150,5.635,5.636,32.349,12.310,79.225
0.128,16.328,5.696,5.696,32.495,12.335,79.324
0.130,16.495,5.753,5.753,32.632,12.357,79.417
0.132,16.650,5.806,5.806,32.759,12.373,79.504
0.133,16.790,5.855,5.855,32.873,12.384,79.585
0.135,16.915,5.900,5.899,32.974,12.388,79.659
0.136,17.023,5.940,5.939,33.058,12.386,79.727
0.138,17.116,5.975,5.975,33.126,12.376,79.788
0.139,17.196,6.005,6.005,33.181,12.360,79.845
0.141,17.266,6.029,6.029,33.223,12.340,79.897
0.142,17.329,6.047,6.048,33.255,12.315,79.945
0.144,17.388,6.061,6.062,33.280,12.287,79.991
0.146,17.444,6.071,6.073,33.299,12.258,80.034
0.147,17.498,6.080,6.082,33.314,12.227,80.077
0.149,17.552,6.090,6.092,33.327,12.197,80.120
0.150,17.606,6.103,6.105,33.341,12.168,80.163
0.152,17.661,6.121,6.121,33.358,12.141,80.207
0.153,17.718,6.145,6.142,33.379,12.117,80.254
0.155,17.777,6.173,6.167,33.405,12.096,80.303
0.156,17.839,6.203,6.195,33.436,12.079,80.354
0.158,17.903,6.234,6.225,33.470,12.064,80.406
0.159,17.967,6.263,6.255,33.505,12.051,80.458
0.161,18.032,6.289,6.286,33.542,12.038,80.510
0.163,18.095,6.309,6.315,33.578,12.026,80.560
0.164,18.156,6.323,6.341,33.613,12.014,80.609
0.166,18.213,6.333,6.365,33.646,12.001,80.654
0.167,18.266,6.340,6.386,33.675,11.987,80.696
0.169,18.314,6.346,6.404,33.699,11.971,80.734
0.170,18.356,6.353,6.417,33.718,11.952,80.767
0.172,18.394,6.362,6.426,33.732,11.931,80.795
0.173,18.430,6.373,6.431,33.743,11.908,80.820
0.175,18.465,6.387,6.432,33.756,11.884,80.842
0.176,18.500,6.400,6.431,33.771,11.860,80.862
0.178,18.538,6.411,6.428,33.793,11.835,80.882
0.180,18.582,6.418,6.426,33.824,11.812,80.902
0.181,18.634,6.420,6.424,33.866,11.791,80.924
0.183,18.698,6.416,6.424,33.922,11.772,80.949
0.184,18.779,6.404,6.427,33.996,11.756,80.977
0.186,18.878,6.386,6.429,34.089,11.744,81.010
0.187,19.001,6.363,6.430,34.205,11.736,81.049
0.189,19.145,6.336,6.429,34.341,11.733,81.094
0.190,19.305,6.307,6.423,34.495,11.734,81.143
0.192,19.479,6.276,6.412,34.660,11.739,81.194
0.193,19.659,6.245,6.394,34.833,11.746,81.246
0.195,19.842,6.215,6.370,35.008,11.756,81.298
0.197,20.023,6.185,6.342,35.181,11.767,81.349
0.198,20.197,6.158,6.310,35.348,11.780,81.396
0.200,20.358,6.133,6.278,35.503,11.794,81.439
0.201,20.503,6.112,6.245,35.642,11.808,81.475
0.203,20.626,6.095,6.214,35.761,11.821,81.505
0.204,20.723,6.082,6.185,35.855,11.833,81.525
0.206,20.794,6.073,6.159,35.924,11.845,81.536
0.207,20.843,6.067,6.137,35.972,11.855,81.541
0.209,20.873,6.063,6.119,36.001,11.863,81.541
0.211,20.889,6.060,6.106,36.014,11.870,81.537
0.212,20.897,6.057,6.098,36.016,11.876,81.531
0.214,20.907,6.055,6.096,36.009,11.880,81.525
0.215,20.920,6.053,6.099,35.997,11.882,81.520
0.217,20.935,6.051,6.105,35.983,11.882,81.518
0.218,20.948,6.050,6.115,35.970,11.880,81.521
0.220,20.961,6.050,6.126,35.961,11.876,81.530
0.221,20.980,6.051,6.138,35.960,11.870,81.547
0.223,21.007,6.055,6.150,35.968,11.862,81.572
0.224,21.043,6.059,6.160,35.985,11.854,81.604
0.226,21.089,6.063,6.169,36.011,11.846,81.641
0.228,21.143,6.064,6.175,36.045,11.840,81.682
0.229,21.205,6.061,6.178,36.089,11.836,81.726
0.231,21.275,6.052,6.177,36.141,11.835,81.772
0.232,21.353,6.036,6.171,36.203,11.838,81.819
0.234,21.438,6.010,6.160,36.274,11.847,81.866
0.235,21.531,5.977,6.144,36.353,11.861,81.911
0.237,21.632,5.940,6.123,36.442,11.883,81.954
0.238,21.741,5.899,6.097,36.540,11.913,81.993
0.240,21.858,5.859,6.066,36.645,11.950,82.028
0.241,21.981,5.821,6.030,36.756,11.994,82.059
0.243,22.107,5.788,5.990,36.868,12.044,82.088
0.245,22.234,5.760,5.947,36.980,12.097,82.115
0.246,22.359,5.735,5.904,37.089,12.154,82.139
0.248,22.481,5.711,5.864,37.193,12.213,82.162
0.249,22.596,5.687,5.830,37.289,12.273,82.184
0.251,22.703,5.659,5.805,37.374,12.333,82.206
0.252,22.799,5.627,5.792,37.446,12.392,82.228
0.254,22.882,5.588,5.794,37.503,12.449,82.250
0.255,22.952,5.544,5.807,37.542,12.502,82.273
0.257,23.013,5.499,5.825,37.569,12.552,82.297
0.259,23.069,5.454,5.842,37.589,12.597,82.321
0.260,23.121,5.414,5.853,37.612,12.639,82.343
0.262,23.174,5.380,5.852,37.645,12.676,82.364
0.263,23.236,5.357,5.833,37.694,12.709,82.382
0.265,23.317,5.342,5.794,37.768,12.736,82.396
0.266,23.426,5.329,5.736,37.874,12.759,82.407
0.268,23.573,5.311,5.659,38.020,12.777,82.412
0.269,23.766,5.279,5.566,38.213,12.789,82.412
0.271,24.014,5.227,5.458,38.460,12.795,82.405
0.272,24.322,5.146,5.336,38.768,12.795,82.392
0.274,24.683,5.032,5.202,39.129,12.790,82.371
0.276,25.084,4.892,5.061,39.529,12.781,82.346
0.277,25.510,4.736,4.918,39.954,12.768,82.316
0.279,25.950,4.578,4.779,40.392,12.751,82.282
0.280,26.389,4.431,4.649,40.829,12.732,82.247
0.282,26.813,4.306,4.534,41.252,12.712,82.210
0.283,27.210,4.215,4.439,41.646,12.691,82.174
0.285,27.566,4.164,4.368,42.000,12.669,82.138
0.286,27.867,4.146,4.317,42.298,12.648,82.105
0.288,28.100,4.152,4.285,42.529,12.629,82.075
0.289,28.256,4.174,4.268,42.681,12.611,82.049
0.291,28.341,4.202,4.263,42.762,12.596,82.028
0.293,28.372,4.230,4.269,42.787,12.584,82.014
0.294,28.393,4.249,4.281,42.770,12.575,82.005
0.296,28.437,4.257,4.298,42.727,12.569,82.004
0.297,28.493,4.257,4.318,42.671,12.567,82.010
0.299,28.548,4.250,4.339,42.618,12.569,82.025
0.300,28.592,4.238,4.357,42.582,12.575,82.049
0.302,28.628,4.221,4.371,42.577,12.586,82.083
0.303,28.691,4.203,4.379,42.619,12.601,82.128
0.305,28.809,4.185,4.381,42.721,12.622,82.183
0.307,28.998,4.172,4.382,42.896,12.648,82.251
0.308,29.252,4.168,4.388,43.136,12.679,82.327
0.310,29.558,4.178,4.403,43.429,12.713,82.410
0.311,29.905,4.206,4.434,43.762,12.750,82.496
0.313,30.279,4.258,4.486,44.124,12.789,82.583
0.314,30.669,4.335,4.564,44.502,12.828,82.668
0.316,31.060,4.435,4.664,44.884,12.867,82.748
0.317,31.442,4.549,4.777,45.257,12.905,82.820
0.319,31.801,4.669,4.896,45.608,12.941,82.882
0.320,32.124,4.787,5.011,45.926,12.973,82.929
0.322,32.399,4.892,5.115,46.198,13.001,82.960
0.324,32.618,4.979,5.198,46.415,13.025,82.973
0.325,32.784,5.041,5.257,46.580,13.044,82.969
0.327,32.907,5.082,5.294,46.701,13.060,82.952
0.328,32.995,5.107,5.317,46.784,13.073,82.924
0.330,33.060,5.120,5.331,46.837,13.086,82.890
0.331,33.110,5.127,5.340,46.868,13.098,82.853
0.333,33.153,5.132,5.351,46.882,13.111,82.814
0.334,33.192,5.139,5.368,46.888,13.126,82.779
0.336,33.227,5.150,5.393,46.893,13.145,82.749
0.337,33.259,5.166,5.425,46.904,13.167,82.728
0.339,33.296,5.186,5.460,46.928,13.194,82.720
0.341,33.350,5.211,5.499,46.970,13.227,82.725
0.342,33.424,5.240,5.539,47.030,13.264,82.745
0.344,33.515,5.273,5.578,47.106,13.306,82.776
0.345,33.622,5.311,5.615,47.194,13.350,82.816
0.347,33.741,5.352,5.651,47.292,13.396,82.864
0.348,33.868,5.395,5.684,47.398,13.443,82.918
0.350,34.002,5.440,5.715,47.509,13.489,82.976
0.351,34.138,5.486,5.743,47.622,13.533,83.037
0.353,34.273,5.531,5.769,47.736,13.575,83.097
0.354,34.405,5.574,5.791,47.848,13.612,83.155
0.356,34.529,5.616,5.811,47.955,13.645,83.210
0.358,34.644,5.654,5.829,48.054,13.673,83.260
0.359,34.749,5.690,5.845,48.147,13.695,83.305
0.361,34.845,5.722,5.861,48.232,13.712,83.345
0.362,34.931,5.749,5.876,48.310,13.725,83.380
0.364,35.008,5.772,5.891,48.380,13.734,83.411
0.365,35.077,5.789,5.907,48.442,13.740,83.439
0.367,35.136,5.802,5.923,48.496,13.743,83.463
0.368,35.186,5.810,5.938,48.542,13.744,83.483
0.370,35.228,5.816,5.953,48.580,13.743,83.500
0.372,35.261,5.818,5.966,48.610,13.742,83.515
0.373,35.285,5.819,5.976,48.631,13.740,83.527
0.375,35.302,5.818,5.984,48.644,13.738,83.538
0.376,35.313,5.816,5.989,48.651,13.735,83.546
0.378,35.321,5.813,5.991,48.654,13.733,83.553
0.379,35.328,5.811,5.992,48.656,13.731,83.560
0.381,35.335,5.809,5.992,48.659,13.729,83.566
0.382,35.345,5.808,5.991,48.666,13.728,83.572
0.384,35.359,5.808,5.990,48.678,13.727,83.578
0.385,35.380,5.811,5.989,48.699,13.726,83.586
0.387,35.413,5.815,5.989,48.730,13.725,83.595
0.389,35.458,5.822,5.991,48.774,13.725,83.605
0.390,35.519,5.832,5.996,48.833,13.725,83.618
0.392,35.596,5.846,6.006,48.908,13.726,83.633
0.393,35.686,5.862,6.020,48.997,13.727,83.651
0.395,35.788,5.883,6.040,49.097,13.729,83.671
0.396,35.897,5.907,6.064,49.203,13.729,83.694
0.398,36.011,5.932,6.091,49.314,13.729,83.720
0.399,36.126,5.957,6.117,49.426,13.729,83.748
0.401,36.240,5.979,6.139,49.536,13.727,83.778
0.402,36.350,5.996,6.156,49.641,13.723,83.811
0.404,36.454,6.008,6.163,49.738,13.718,83.847
0.406,36.547,6.011,6.159,49.823,13.710,83.885
0.407,36.630,6.010,6.147,49.894,13.700,83.926
0.409,36.701,6.004,6.130,49.949,13.688,83.970
0.410,36.765,5.999,6.111,49.991,13.676,84.016
0.412,36.825,5.995,6.094,50.024,13.664,84.065
0.413,36.885,5.995,6.082,50.051,13.654,84.118
0.415,36.947,6.002,6.079,50.076,13.649,84.175
0.416,37.013,6.016,6.084,50.101,13.649,84.235
0.418,37.084,6.035,6.095,50.131,13.655,84.299
0.420,37.163,6.056,6.110,50.168,13.671,84.368
0.421,37.255,6.076,6.125,50.216,13.696,84.442
0.423,37.362,6.094,6.137,50.279,13.732,84.520
0.424,37.488,6.107,6.145,50.359,13.782,84.603
0.426,37.635,6.113,6.144,50.459,13.845,84.691
0.427,37.799,6.112,6.137,50.574,13.919,84.782
0.429,37.975,6.105,6.123,50.700,14.001,84.874
0.430,38.159,6.094,6.106,50.835,14.087,84.965
0.432,38.346,6.079,6.085,50.973,14.176,85.052
0.433,38.530,6.061,6.063,51.112,14.265,85.135
0.435,38.707,6.041,6.040,51.247,14.351,85.210
0.437,38.871,6.021,6.019,51.375,14.430,85.277
0.438,39.018,6.001,5.999,51.491,14.501,85.332
0.440,39.143,5.982,5.981,51.592,14.561,85.375
0.441,39.241,5.966,5.965,51.675,14.606,85.403
0.443,39.311,5.953,5.953,51.737,14.636,85.416
0.444,39.359,5.944,5.944,51.780,14.654,85.418
0.446,39.388,5.940,5.939,51.808,14.662,85.412
0.447,39.404,5.940,5.938,51.822,14.663,85.404
0.449,39.413,5.943,5.940,51.824,14.660,85.396
0.450,39.422,5.948,5.944,51.818,14.655,85.392
0.452,39.436,5.953,5.949,51.805,14.652,85.396
0.454,39.460,5.957,5.955,51.788,14.652,85.413
0.455,39.498,5.958,5.961,51.769,14.659,85.445
0.457,39.556,5.957,5.965,51.750,14.676,85.498
0.458,39.639,5.951,5.966,51.735,14.704,85.574
0.460,39.748,5.942,5.965,51.723,14.746,85.674
0.461,39.879,5.930,5.959,51.716,14.798,85.794
0.463,40.029,5.913,5.947,51.713,14.860,85.931
0.464,40.193,5.892,5.929,51.713,14.928,86.079
0.466,40.365,5.867,5.904,51.717,15.002,86.235
0.467,40.541,5.838,5.872,51.724,15.078,86.394
0.469,40.717,5.806,5.835,51.735,15.156,86.551
0.471,40.888,5.773,5.794,51.748,15.232,86.704
0.472,41.050,5.738,5.752,51.764,15.305,86.847
0.474,41.197,5.703,5.709,51.783,15.373,86.976
0.475,41.325,5.669,5.667,51.804,15.433,87.087
0.477,41.432,5.636,5.627,51.827,15.486,87.178
0.478,41.521,5.606,5.592,51.849,15.530,87.251
0.480,41.591,5.578,5.562,51.870,15.568,87.307
0.481,41.645,5.555,5.539,51.888,15.599,87.348
0.483,41.684,5.536,5.525,51.902,15.623,87.375
0.485,41.710,5.523,5.520,51.909,15.642,87.390
0.486,41.724,5.516,5.527,51.908,15.656,87.394
0.488,41.739,5.514,5.544,51.897,15.666,87.389
0.489,41.764,5.517,5.568,51.876,15.671,87.377
0.491,41.803,5.522,5.597,51.842,15.673,87.359
0.492,41.856,5.529,5.628,51.794,15.671,87.337
0.494,41.919,5.535,5.658,51.735,15.669,87.313
0.495,41.986,5.540,5.685,51.672,15.667,87.293
0.497,42.046,5.541,5.707,51.613,15.670,87.280
0.498,42.094,5.536,5.717,51.565,15.679,87.280
0.500,42.132,5.521,5.713,51.537,15.698,87.296
0.502,42.180,5.492,5.689,51.536,15.729,87.333
0.503,42.265,5.446,5.641,51.569,15.774,87.397
0.505,42.401,5.380,5.565,51.645,15.837,87.490
0.506,42.599,5.291,5.458,51.770,15.920,87.619
0.508,42.869,5.185,5.326,51.953,16.026,87.787
0.509,43.220,5.072,5.183,52.201,16.158,87.998
0.511,43.649,4.962,5.041,52.511,16.313,88.251
0.512,44.143,4.864,4.913,52.872,16.488,88.538
0.514,44.685,4.790,4.811,53.272,16.677,88.852
0.515,45.261,4.748,4.749,53.699,16.875,89.183
0.517,45.856,4.744,4.734,54.143,17.077,89.524
0.519,46.454,4.774,4.758,54.590,17.278,89.868
0.520,47.042,4.830,4.814,55.029,17.473,90.206
0.522,47.603,4.906,4.894,55.449,17.657,90.530
0.523,48.124,4.997,4.990,55.837,17.825,90.833
0.525,48.588,5.095,5.093,56.182,17.972,91.106
0.526,48.981,5.194,5.196,56.473,18.093,91.342
0.528,49.303,5.291,5.295,56.708,18.187,91.540
0.529,49.559,5.383,5.388,56.893,18.260,91.704
0.531,49.760,5.468,5.472,57.033,18.313,91.837
0.533,49.912,5.544,5.546,57.135,18.351,91.943
0.534,50.025,5.607,5.608,57.204,18.378,92.028
0.536,50.106,5.656,5.656,57.248,18.397,92.094
0.537,50.165,5.689,5.688,57.271,18.411,92.146
0.539,50.211,5.710,5.709,57.280,18.425,92.188
0.540,50.251,5.722,5.721,57.281,18.442,92.224
0.542,50.292,5.727,5.727,57.280,18.466,92.258
0.543,50.342,5.730,5.730,57.282,18.500,92.294
0.545,50.402,5.734,5.734,57.291,18.545,92.334
0.546,50.470,5.741,5.742,57.305,18.598,92.375
0.548,50.546,5.752,5.753,57.324,18.658,92.417
0.550,50.627,5.765,5.766,57.349,18.723,92.459
0.551,50.711,5.778,5.778,57.378,18.790,92.500
0.553,50.797,5.787,5.787,57.411,18.858,92.539
0.554,50.882,5.792,5.792,57.448,18.926,92.576
0.556,50.964,5.791,5.791,57.489,18.990,92.608
0.557,51.043,5.781,5.781,57.533,19.049,92.636
0.559,51.117,5.765,5.765,57.580,19.101,92.657
0.560,51.184,5.744,5.744,57.629,19.145,92.672
0.562,51.247,5.722,5.722,57.680,19.179,92.680
0.563,51.305,5.699,5.699,57.732,19.205,92.682
0.565,51.359,5.679,5.679,57.784,19.224,92.679
0.567,51.411,5.662,5.662,57.834,19.235,92.672
0.568,51.460,5.650,5.650,57.881,19.239,92.662
0.570,51.505,5.643,5.643,57.925,19.238,92.649
0.571,51.547,5.638,5.638,57.964,19.232,92.634
0.573,51.586,5.637,5.637,57.997,19.220,92.619
0.574,51.620,5.638,5.638,58.023,19.205,92.603
0.576,51.649,5.640,5.640,58.041,19.187,92.588
0.577,51.676,5.644,5.644,58.050,19.165,92.574
0.579,51.702,5.649,5.649,58.051,19.143,92.563
0.580,51.726,5.654,5.654,58.046,19.121,92.553
0.582,51.749,5.658,5.658,58.037,19.101,92.546
0.584,51.769,5.662,5.662,58.027,19.085,92.541
0.585,51.783,5.664,5.664,58.017,19.075,92.540
0.587,51.791,5.665,5.665,58.009,19.072,92.541
0.588,51.800,5.663,5.663,58.005,19.078,92.545
0.590,51.819,5.659,5.659,58.008,19.096,92.553
0.591,51.853,5.652,5.652,58.020,19.126,92.564
0.593,51.905,5.641,5.641,58.042,19.170,92.579
0.594,51.977,5.628,5.628,58.077,19.230,92.598
0.596,52.070,5.611,5.611,58.125,19.306,92.622
0.598,52.184,5.590,5.590,58.187,19.398,92.649
0.599,52.317,5.565,5.566,58.263,19.503,92.680
0.601,52.470,5.539,5.539,58.353,19.621,92.716
0.602,52.643,5.512,5.512,58.459,19.752,92.755
0.604,52.835,5.485,5.485,58.581,19.894,92.798
0.605,53.046,5.459,5.459,58.718,20.047,92.845
0.607,53.275,5.434,5.434,58.872,20.209,92.895
0.608,53.522,5.413,5.413,59.042,20.380,92.949
0.610,53.788,5.397,5.396,59.229,20.560,93.007
0.611,54.071,5.387,5.386,59.434,20.745,93.069
0.613,54.368,5.386,5.385,59.652,20.936,93.133
0.615,54.672,5.394,5.394,59.879,21.127,93.200
0.616,54.978,5.415,5.415,60.109,21.317,93.268
0.618,55.280,5.448,5.449,60.338,21.502,93.336
0.619,55.573,5.491,5.492,60.560,21.679,93.405
0.621,55.850,5.538,5.540,60.771,21.846,93.472
0.622,56.105,5.584,5.587,60.966,21.998,93.538
0.624,56.334,5.626,5.628,61.139,22.133,93.601
0.625,56.529,5.659,5.660,61.285,22.248,93.660
0.627,56.687,5.677,5.676,61.401,22.340,93.716
0.628,56.803,5.681,5.677,61.481,22.407,93.766
0.630,56.883,5.676,5.669,61.530,22.451,93.811
0.632,56.937,5.666,5.658,61.556,22.479,93.850
0.633,56.974,5.657,5.648,61.565,22.494,93.883
0.635,57.001,5.654,5.648,61.564,22.503,93.908
0.636,57.020,5.662,5.661,61.561,22.510,93.926
0.638,57.034,5.685,5.694,61.563,22.520,93.935
0.639,57.057,5.721,5.742,61.577,22.538,93.936
0.641,57.103,5.767,5.802,61.609,22.570,93.928
0.642,57.181,5.821,5.868,61.667,22.620,93.910
0.644,57.302,5.878,5.934,61.758,22.693,93.882
0.646,57.470,5.936,5.996,61.887,22.793,93.844
0.647,57.680,5.992,6.048,62.049,22.918,93.797
0.649,57.923,6.043,6.090,62.238,23.062,93.743
0.650,58.189,6.089,6.123,62.445,23.219,93.684
0.652,58.470,6.130,6.153,62.663,23.385,93.622
0.653,58.756,6.165,6.182,62.884,23.554,93.559
0.655,59.037,6.195,6.214,63.102,23.722,93.498
0.656,59.305,6.218,6.252,63.307,23.883,93.440
0.658,59.550,6.235,6.300,63.494,24.032,93.388
0.659,59.762,6.247,6.355,63.654,24.165,93.343
0.661,59.933,6.255,6.413,63.780,24.275,93.307
0.663,60.056,6.260,6.469,63.866,24.359,93.283
0.664,60.135,6.265,6.520,63.916,24.419,93.268
0.666,60.179,6.269,6.560,63.935,24.458,93.263
0.667,60.202,6.276,6.587,63.929,24.480,93.267
0.669,60.230,6.285,6.598,63.904,24.488,93.277
0.670,60.272,6.296,6.597,63.865,24.485,93.293
